,Request Id,request_e2e_time,cdf
0,0,1.3282126708806266,9.432182607055272e-05
1,1,1.342590828909296,0.00018864365214110544
2,2,1.3563577531449211,0.0002829654782116582
3,3,1.3689272450052954,0.0003772873042822109
4,5,1.389695059894339,0.00047160913035276363
5,6,1.4028989447547133,0.0005659309564233164
6,7,1.4135154565961923,0.0006602527824938691
7,8,1.4288020202119451,0.0007545746085644218
8,9,1.4434395994184028,0.0008488964346349745
9,10,1.4619764998248606,0.0009432182607055273
10,11,1.4815278604313185,0.00103754008677608
11,12,1.4958753664377762,0.0011318619128466328
12,13,1.5084577083016315,0.0012261837389171855
13,14,1.5221787429654867,0.0013205055649877383
14,15,1.542571366029342,0.0014148273910582908
15,16,1.5624842560931973,0.0015091492171288435
16,17,1.5819704640986503,0.0016034710431993963
17,18,1.6016442761041032,0.001697792869269949
18,19,1.616556847509556,0.0017921146953405018
19,20,1.632970300715009,0.0018864365214110545
20,21,1.653707188557388,0.0019807583474816073
21,22,1.6737216296395812,0.00207508017355216
22,23,1.6931184527217742,0.002169401999622713
23,24,1.7135055049641534,0.0022637238256932655
24,26,1.7499930515666349,0.0023580456517638183
25,27,1.7631946810678756,0.002452367477834371
26,28,1.7774839609691164,0.0025466893039049238
27,29,1.7990822391030188,0.0026410111299754765
28,30,1.818324811505164,0.002735332956046029
29,31,1.8369092011073096,0.0028296547821165816
30,32,1.8576057178412118,0.0029239766081871343
31,33,1.8667029552703522,0.003018298434257687
32,34,1.8879919376994925,0.00311262026032824
33,36,1.9288736708911067,0.0032069420863987926
34,37,1.9474665925413648,0.0033012639124693453
35,38,1.9661013006207326,0.003395585738539898
36,39,1.9853630950395187,0.003489907564610451
37,40,2.0048210274583047,0.0035842293906810036
38,41,2.0224492378770904,0.0036785512167515563
39,42,2.0429269748825436,0.003772873042822109
40,43,2.0618855338879967,0.003867194868892662
41,44,2.0804796058934496,0.003961516694963215
42,46,2.115021577904355,0.004055838521033767
43,47,2.1337959229098082,0.00415016034710432
44,48,2.1538268229152613,0.004244482173174873
45,49,2.174330219920714,0.004338803999245426
46,50,2.193449076926167,0.004433125825315978
47,51,2.21397024593162,0.004527447651386531
48,52,2.229598483937073,0.004621769477457084
49,53,2.248979673942526,0.0047160913035276366
50,54,2.268350479947979,0.004810413129598189
51,55,2.2865790549534317,0.004904734955668742
52,56,2.2954928449588845,0.004999056781739295
53,57,2.3051754829643376,0.0050933786078098476
54,58,2.3221697249697906,0.0051877004338804
55,59,2.3420462569752436,0.005282022259950953
56,60,2.3579106509806964,0.005376344086021506
57,61,2.3759914409861493,0.005470665912092058
58,63,2.409566262997055,0.0055649877381626104
59,64,2.424889398002508,0.005659309564233163
60,65,2.4448994200079612,0.005753631390303716
61,66,2.463070950013414,0.005847953216374269
62,67,2.481894964018867,0.005942275042444821
63,68,2.50050951602432,0.006036596868515374
64,69,2.5177156560297727,0.006130918694585927
65,70,2.533797434035226,0.00622524052065648
66,71,2.5521816430406785,0.006319562346727032
67,72,2.5602320780461314,0.006413884172797585
68,73,2.5771573200515845,0.006508205998868138
69,74,2.5958139280570376,0.006602527824938691
70,75,2.6103562730624903,0.006696849651009243
71,76,2.630232060123097,0.006791171477079796
72,77,2.65007838012855,0.006885493303150349
73,78,2.669349698134003,0.006979815129220902
74,79,2.683754310139456,0.007074136955291454
75,80,2.701967071144909,0.007168458781362007
76,81,2.716565833150362,0.00726278060743256
77,82,2.734461865155815,0.007357102433503113
78,83,2.7514196861612676,0.007451424259573665
79,84,2.7712518641667208,0.007545746085644218
80,85,2.7913917121721736,0.007640067911714771
81,86,2.7972496331776266,0.007734389737785324
82,88,2.8384619091885326,0.007828711563855876
83,89,2.8589826851939852,0.00792303338992643
84,90,2.877667893199438,0.008017355215996981
85,91,2.8914465402048912,0.008111677042067535
86,92,2.911195921369283,0.008205998868138087
87,93,2.9269325075336745,0.00830032069420864
88,94,2.942677596698066,0.008394642520279192
89,95,2.9602578658624576,0.008488964346349746
90,96,2.978604738026849,0.008583286172420298
91,97,2.9925352108053915,0.008677607998490851
92,98,3.0072371688706023,0.008771929824561403
93,99,3.038108143272545,0.008866251650631957
95,101,3.0517385579712073,0.008960573476702509
94,100,3.059185990342538,0.009054895302773062
96,102,3.0641405426315815,0.009149217128843614
97,103,3.078133367660251,0.009243538954914168
99,105,3.0912972799175904,0.00933786078098472
101,107,3.094626809170571,0.009432182607055273
98,104,3.0998043559175903,0.009526504433125825
103,109,3.105106458284251,0.009620826259196379
100,106,3.106460069170571,0.00971514808526693
102,108,3.1067436542842515,0.009809469911337484
105,111,3.1161607532460764,0.009903791737408036
104,110,3.1191899502460765,0.00999811356347859
107,113,3.1208335070079016,0.010092435389549142
106,112,3.125929136007902,0.010186757215619695
109,115,3.1296496843697272,0.010281079041690247
108,114,3.133822337369727,0.0103754008677608
111,117,3.1430191594335826,0.010469722693831352
110,116,3.1444387584335827,0.010564044519901906
113,119,3.1582990024974373,0.010658366345972458
112,118,3.1595819984974374,0.010752688172043012
115,121,3.1682006974642754,0.010847009998113563
114,120,3.168464898464275,0.010941331824184115
117,123,3.180870983842818,0.011035653650254669
116,122,3.1837122218428178,0.011129975476325221
119,125,3.1962720377066733,0.011224297302395774
118,124,3.1967273587066733,0.011318619128466326
121,127,3.203853969570529,0.01141294095453688
120,126,3.2054193305705287,0.011507262780607432
123,129,3.220811911434384,0.011601584606677985
122,128,3.222876922434384,0.011695906432748537
124,130,3.2384963252982395,0.011790228258819091
126,133,3.2560339535036924,0.011884550084889643
125,132,3.2572993285036924,0.011978871910960196
128,135,3.2636438333675475,0.012073193737030748
127,134,3.2763644073675477,0.012167515563101302
129,136,3.283872623231403,0.012261837389171854
131,139,3.2953723221957945,0.012356159215242407
130,138,3.2962274101957947,0.01245048104131296
133,141,3.2964647322022524,0.012544802867383513
135,143,3.307042975303224,0.012639124693454065
134,142,3.307456161303224,0.012733446519524618
132,140,3.3146139312022522,0.01282776834559517
137,145,3.31468996873822,0.012922090171665724
136,144,3.32242475673822,0.013016411997736276
139,147,3.328823165144678,0.01311073382380683
138,146,3.332680821144678,0.013205055649877381
140,148,3.345084095551136,0.013299377475947935
141,150,3.360806766956589,0.013393699302018487
143,153,3.379392973162042,0.01348802112808904
142,152,3.3801087931620417,0.013582342954159592
145,155,3.3933403265684996,0.013676664780230146
144,154,3.3974035975684997,0.013770986606300698
147,157,3.4100240399749575,0.013865308432371251
146,156,3.411175954974958,0.013959630258441803
149,159,3.4231960063814157,0.014053952084512357
148,158,3.428187861381416,0.014148273910582909
151,161,3.4409043847878737,0.014242595736653462
150,160,3.4429567867878736,0.014336917562724014
153,163,3.4496927984576544,0.014431239388794566
152,162,3.4512190104576543,0.01452556121486512
154,165,3.4630757018641125,0.014619883040935672
155,166,3.481969571946305,0.014714204867006225
156,167,3.501661014552763,0.014808526693076777
157,168,3.5172652325592213,0.01490284851914733
158,169,3.5297925080230765,0.014997170345217883
159,170,3.5454498438869315,0.015091492171288436
160,171,3.564748517950786,0.015185813997358988
161,172,3.579900694014641,0.015280135823429542
162,173,3.5873516763764663,0.015374457649500094
163,174,3.605962076589961,0.015468779475570647
164,175,3.624745016595414,0.0155631013016412
165,176,3.636752277260625,0.01565742312771175
166,177,3.649356898925836,0.015751744953782305
167,178,3.6556458716876614,0.01584606677985286
168,179,3.671182767693115,0.015940388605923412
169,180,3.687465559098567,0.016034710431993962
170,181,3.7014849902603926,0.016129032258064516
171,182,3.7138866149256033,0.01622335408413507
172,183,3.7287890805908144,0.016317675910205623
173,184,3.7382264092560256,0.016411997736276173
174,185,3.7525351789212364,0.016506319562346727
175,186,3.771173098326689,0.01660064138841728
176,187,3.784768168488514,0.016694963214487834
177,188,3.8024656778939665,0.016789285040558384
178,189,3.81987732169942,0.016883606866628938
179,190,3.831661428061245,0.01697792869269949
180,191,3.84551802622307,0.017072250518770045
181,192,3.8582803068882816,0.017166572344840595
182,193,3.873616532553492,0.01726089417091115
183,194,3.8747370092187032,0.017355215996981702
184,195,3.8793311078839143,0.017449537823052256
185,196,3.8940496895491252,0.017543859649122806
186,197,3.9077322383109507,0.01763818147519336
187,198,3.9203834557187247,0.017732503301263913
188,199,3.940985972724177,0.017826825127334467
189,200,3.950402688486003,0.017921146953405017
190,201,3.9631014548937764,0.01801546877947557
191,202,3.975291040255602,0.018109790605546124
192,204,4.006385121129471,0.018204112431616674
193,205,4.017977245645131,0.018298434257687228
194,206,4.0358663167089865,0.01839275608375778
195,207,4.052958555714438,0.018487077909828335
196,208,4.066392188979649,0.018581399735898885
197,209,4.06872402424486,0.01867572156196944
198,210,4.075625699250313,0.018770043388039993
199,211,4.089898665915524,0.018864365214110546
200,212,4.106287288576131,0.018958687040181096
201,213,4.120717105137956,0.01905300886625165
202,214,4.136799204543409,0.019147330692322204
203,215,4.146436278901599,0.019241652518392757
204,216,4.160674442463424,0.019335974344463307
205,217,4.180524548868877,0.01943029617053386
206,218,4.196816620227067,0.019524617996604415
208,220,4.526069956587215,0.019618939822674968
207,219,4.527110170587215,0.01971326164874552
210,222,4.544381835592668,0.019807583474816072
209,221,4.546045668592668,0.019901905300886626
211,223,4.5644350045981215,0.01999622712695718
212,224,4.583227336258728,0.02009054895302773
214,226,4.596412354820552,0.020184870779098283
213,225,4.598296429820553,0.020279192605168837
216,228,4.599490976085764,0.02037351443123939
215,227,4.610515628085763,0.02046783625730994
218,230,4.616361553091216,0.020562158083380494
217,229,4.616461180091216,0.020656479909451048
220,232,4.633493043096669,0.0207508017355216
219,231,4.6340209070966685,0.02084512356159215
222,234,4.645821516357276,0.020939445387662705
221,233,4.647908273357276,0.02103376721373326
224,236,4.65397047576505,0.021128089039803812
223,235,4.659383632765049,0.021222410865874362
226,238,4.671704682828905,0.021316732691944916
225,237,4.671904491828904,0.02141105451801547
227,239,4.683055604344565,0.021505376344086023
229,241,4.695462679860225,0.021599698170156573
228,240,4.6977234838602255,0.021694019996227127
230,242,4.712868533924081,0.02178834182229768
231,243,4.730595427137576,0.02188266364836823
233,245,4.7338569964994015,0.021976985474438784
232,244,4.741371681499401,0.022071307300509338
235,247,4.753444726563257,0.02216562912657989
234,246,4.754056582563257,0.022259950952650442
237,249,4.764007523627113,0.022354272778720995
236,248,4.770450069627112,0.02244859460479155
239,251,4.775162439690968,0.022542916430862103
238,250,4.780851436690968,0.022637238256932653
241,253,4.7868903667548235,0.022731560083003206
240,252,4.794236079754823,0.02282588190907376
243,255,4.802875901818679,0.022920203735144314
242,254,4.803747921818679,0.023014525561214864
245,257,4.8181304888825345,0.023108847387285417
244,256,4.8192909128825345,0.02320316921335597
247,259,4.832288463096028,0.023297491039426525
246,258,4.834323703096029,0.023391812865497075
248,260,4.850440948159884,0.02348613469156763
250,263,4.8655171550611245,0.023580456517638182
249,262,4.868625889061125,0.023674778343708736
252,265,4.87022177912498,0.023769100169779286
251,264,4.87189226912498,0.02386342199584984
254,267,4.872217949188836,0.023957743821920393
256,269,4.888479098252692,0.024052065647990947
253,266,4.888817779188836,0.024146387474061497
255,268,4.890982945252691,0.02424070930013205
258,271,4.894763049316547,0.024335031126202604
257,270,4.9010979193165465,0.024429352952273158
260,273,4.909215012380402,0.024523674778343708
259,272,4.911777460380402,0.02461799660441426
262,275,4.925292443444258,0.024712318430484815
261,274,4.926017117444258,0.02480664025655537
264,277,4.940506899657752,0.02490096208262592
263,276,4.943949443657752,0.024995283908696472
265,278,4.9788459189822145,0.025089605734767026
267,281,4.990169279316117,0.025183927560837576
266,280,4.992519641316116,0.02527824938690813
268,282,5.00166027772389,0.025372571212978683
269,283,5.013123941131664,0.025466893039049237
271,285,5.030739641901263,0.025561214865119787
270,284,5.039841607901264,0.02565553669119034
273,287,5.043645657416924,0.025749858517260894
272,286,5.045672558416924,0.025844180343331448
274,288,5.0753524708426045,0.025938502169401998
275,289,5.079738111084084,0.02603282399547255
276,290,5.084478418050922,0.026127145821543105
277,291,5.0990599438213104,0.02622146764761366
279,293,5.10774089666279,0.02631578947368421
278,292,5.11033892666279,0.026410111299754763
281,295,5.137100205628972,0.026504433125825316
280,294,5.139343403628972,0.02659875495189587
283,297,5.151271659729943,0.02669307677796642
282,296,5.1517636397299436,0.026787398604036974
284,298,5.1993363056826825,0.026881720430107527
285,299,5.211012892506058,0.02697604225617808
286,300,5.224161196839069,0.02707036408224863
287,301,5.237886339140156,0.027164685908319185
288,302,5.249231877931999,0.02725900773438974
289,303,5.273624945515689,0.027353329560460292
290,304,5.2847982758487,0.027447651386530842
291,305,5.298036767242623,0.027541973212601396
292,306,5.307213626139848,0.02763629503867195
293,307,5.332736382325616,0.027730616864742503
294,309,5.352002216085089,0.027824938690813053
295,310,5.363738772507659,0.027919260516883607
296,311,5.376772252459072,0.02801358234295416
297,312,5.383682389760159,0.028107904169024714
298,313,5.391449074018131,0.028202225995095264
299,314,5.401835956969544,0.028296547821165818
300,315,5.41354317027063,0.02839086964723637
301,316,5.426355004062474,0.028485191473306925
302,317,5.439641580485045,0.028579513299377475
303,318,5.451677830786131,0.02867383512544803
304,319,5.463940037577975,0.028768156951518582
305,321,5.489565837505225,0.028862478777589132
306,322,5.503929877806311,0.028956800603659686
307,323,5.5120425331073974,0.02905112242973024
308,324,5.519930878408483,0.029145444255800793
309,325,5.522228063666456,0.029239766081871343
310,326,5.534988662924429,0.029334087907941897
311,327,5.799164275487289,0.02942840973401245
312,328,5.812389343322808,0.029522731560083004
313,329,5.824043858158326,0.029617053386153554
314,330,5.830382171859366,0.029711375212224108
315,331,5.844375277431665,0.02980569703829466
316,333,5.868171902661937,0.029900018864365215
317,334,5.881469833862202,0.029994340690435765
318,335,5.894613143658418,0.03008866251650632
319,336,5.906235501454635,0.030182984342576873
320,337,5.913384069406047,0.030277306168647426
321,339,5.937914493391814,0.030371627994717976
322,340,5.950142221724826,0.03046594982078853
323,341,5.960909314622051,0.030560271646859084
324,342,5.970560238883381,0.030654593472929637
325,343,5.9777489783485915,0.030748915299000187
326,344,5.986601562654577,0.03084323712507074
327,345,5.995584165045786,0.030937558951141295
328,346,6.004596672582688,0.031031880777211848
329,348,6.030099504756334,0.0311262026032824
330,349,6.042387987293236,0.031220524429352952
331,350,6.056283248830138,0.0313148462554235
332,351,6.063941982433395,0.031409168081494056
333,352,6.078147235970297,0.03150348990756461
334,353,6.0917871815071996,0.03159781173363516
335,354,6.104519073044102,0.03169213355970572
336,355,6.118438413070265,0.03178645538577627
337,356,6.131899220096429,0.031880777211846824
338,357,6.143728933402414,0.03197509903791738
339,358,6.155249942428577,0.032069420863987924
340,359,6.168892782689908,0.03216374269005848
341,360,6.178887882995893,0.03225806451612903
342,362,6.203772038724004,0.032352386342199585
343,363,6.217937482391027,0.03244670816827014
344,364,6.229502057927929,0.03254102999434069
345,365,6.234966327531186,0.032635351820411246
346,366,6.248937180068088,0.03272967364648179
347,367,6.259588103671345,0.032823995472552346
348,368,6.272889838338368,0.0329183172986229
349,369,6.28272241100539,0.03301263912469345
350,370,6.298106857972227,0.03310696095076401
351,371,6.305621720064644,0.03320128277683456
352,372,6.315781015003273,0.033295604602905114
353,373,6.323860476826648,0.03338992642897567
354,374,6.335585373896732,0.033484248255046214
355,375,6.346442853625846,0.03357857008111677
356,376,6.354603554056964,0.03367289190718732
357,377,6.359641594288758,0.033767213733257875
358,378,6.371578102587307,0.03386153555932843
359,379,6.3843533438858575,0.03395585738539898
360,381,6.405129072762827,0.034050179211469536
361,382,6.4186555033983455,0.03414450103754009
362,384,6.444897885669489,0.034238822863610636
363,385,6.447052217305007,0.03433314468968119
364,386,6.4608182999405255,0.034427466515751744
365,387,6.4727404135760445,0.0345217883418223
366,388,6.486322207211563,0.03461611016789285
367,389,6.500303611847081,0.034710431993963405
368,390,6.512929971482599,0.03480475382003396
369,391,6.526018602118118,0.03489907564610451
370,392,6.5401121577536365,0.03499339747217506
371,393,6.553607563389154,0.03508771929824561
372,394,6.566865092024672,0.035182041124316166
373,395,6.580536530660191,0.03527636295038672
374,396,6.59139276029571,0.03537068477645727
375,397,6.602596289931228,0.03546500660252783
376,399,6.612798746808226,0.03555932842859838
377,400,6.622369692443744,0.035653650254668934
378,401,6.635839880079262,0.03574797208073948
379,402,6.64945354471478,0.035842293906810034
380,403,6.657279677350299,0.03593661573288059
381,404,6.6688097459858175,0.03603093755895114
382,405,6.682494148621336,0.036125259385021695
383,406,6.696068104256855,0.03621958121109225
384,407,6.709083489892374,0.0363139030371628
385,408,6.716862697527894,0.03640822486323335
386,409,6.7294952877565635,0.0365025466893039
387,410,6.7317230323920825,0.036596868515374456
388,411,6.739545519027602,0.03669119034144501
389,412,6.750019119663121,0.03678551216751556
390,413,6.76201794689179,0.03687983399358612
391,414,6.77296492112046,0.03697415581965667
392,415,7.159842582831894,0.037068477645727224
393,417,7.21609681347599,0.03716279947179777
394,418,7.254381397488905,0.037257121297868324
395,419,7.260464722730385,0.03735144312393888
396,420,7.276521083136842,0.03744576495000943
397,421,7.310500396784779,0.037540086776079985
398,422,7.323506302026257,0.03763440860215054
399,423,7.334503254267736,0.03772873042822109
400,424,7.352878615674193,0.037823052254291646
401,425,7.365226988915673,0.03791737408036219
402,426,7.39022826999863,0.038011695906432746
403,427,7.403017704840108,0.0381060177325033
404,428,7.46643057215731,0.038200339558573854
405,429,7.4706580485987875,0.03829466138464441
406,430,7.495845682272591,0.03838898321071496
407,431,7.517163228206637,0.038483305036785515
408,432,7.529921443745265,0.03857762686285607
409,434,7.554039095449025,0.038671948688926615
410,435,7.64115959500587,0.03876627051499717
411,436,7.652949872594443,0.03886059234106772
412,437,7.666955918172863,0.038954914167138276
413,438,7.69955439335774,0.03904923599320883
414,439,7.71424839679922,0.03914355781927938
415,440,7.725933750240699,0.039237879645349936
416,441,7.728758909739249,0.03933220147142049
417,442,7.737712100895576,0.03942652329749104
418,443,7.750309152051901,0.03952084512356159
419,444,7.763516228208228,0.039615166949632144
420,445,7.781917699223981,0.0397094887757027
421,446,7.790568087380308,0.03980381060177325
422,447,7.802673016536634,0.039898132427843805
423,448,7.81384971169296,0.03999245425391436
424,449,7.826139790849286,0.040086776079984905
425,450,7.841283832005613,0.04018109790605546
426,451,7.848235014161939,0.04027541973212601
427,452,7.864703205177692,0.040369741558196566
428,453,7.8832254061934455,0.04046406338426712
