,Request Id,request_execution_plus_preemption_time_normalized,cdf
11157,9985,0.014441161028669578,7.964954201513341e-05
11158,9986,0.014441161028669578,0.00015929908403026683
11159,9987,0.014441161028669578,0.00023894862604540023
11160,9988,0.014441161028669578,0.00031859816806053366
11161,9989,0.014441161028669578,0.00039824771007566706
11162,9990,0.014441161028669578,0.00047789725209080046
11163,9991,0.014441161028669578,0.0005575467941059339
11164,9992,0.014441161028669578,0.0006371963361210673
11165,9993,0.014441161028669578,0.0007168458781362007
11166,9996,0.014441161028669578,0.0007964954201513341
11167,9997,0.014441161028669578,0.0008761449621664675
11168,9999,0.014441161028669578,0.0009557945041816009
11169,10000,0.014441161028669578,0.0010354440461967343
11170,10001,0.014441161028669578,0.0011150935882118678
11171,10002,0.014441161028669578,0.0011947431302270011
11172,10004,0.014441161028669578,0.0012743926722421346
11173,10005,0.014441161028669578,0.001354042214257268
11174,10008,0.014441161028669578,0.0014336917562724014
11175,10012,0.014441161028669578,0.001513341298287535
11176,10013,0.014441161028669578,0.0015929908403026682
11177,10014,0.014441161028669578,0.0016726403823178017
11178,10015,0.014441161028669578,0.001752289924332935
11179,10016,0.014441161028669578,0.0018319394663480685
11180,10017,0.014441161028669578,0.0019115890083632018
11181,10019,0.014441161028669578,0.001991238550378335
11182,10020,0.014441161028669578,0.0020708880923934686
11183,10021,0.014441161028669578,0.002150537634408602
11184,10022,0.014441161028669578,0.0022301871764237357
11185,10024,0.014441161028669578,0.002309836718438869
11186,10026,0.014441161028669578,0.0023894862604540022
11187,10029,0.014441161028669578,0.0024691358024691358
11188,10030,0.014441161028669578,0.0025487853444842693
11189,10032,0.014441161028669578,0.0026284348864994028
11190,10033,0.014441161028669578,0.002708084428514536
11191,10034,0.014441161028669578,0.0027877339705296694
11192,10035,0.014441161028669578,0.002867383512544803
11193,10036,0.014441161028669578,0.0029470330545599364
11194,10037,0.014441161028669578,0.00302668259657507
11195,10041,0.014441161028669578,0.003106332138590203
11196,10042,0.014441161028669578,0.0031859816806053365
11197,10043,0.014441161028669578,0.00326563122262047
11198,10044,0.014441161028669578,0.0033452807646356035
11199,10045,0.014441161028669578,0.0034249303066507366
11200,10047,0.014441161028669578,0.00350457984866587
11201,10050,0.014441161028669578,0.0035842293906810036
11202,10051,0.014441161028669578,0.003663878932696137
11203,10053,0.014441161028669578,0.0037435284747112706
11204,10055,0.014441161028669578,0.0038231780167264037
11205,10057,0.014441161028669578,0.003902827558741537
11206,10058,0.014441161028669578,0.00398247710075667
11207,10060,0.014441161028669578,0.004062126642771804
11208,10061,0.014441161028669578,0.004141776184786937
11209,10062,0.014441161028669578,0.004221425726802071
11210,10063,0.014441161028669578,0.004301075268817204
11211,10064,0.014441161028669578,0.004380724810832338
11212,10067,0.014441161028669578,0.004460374352847471
11213,10068,0.014441161028669578,0.004540023894862605
11214,10069,0.014441161028669578,0.004619673436877738
11215,10070,0.014441161028669578,0.004699322978892871
11216,10071,0.014441161028669578,0.0047789725209080045
11217,10072,0.014441161028669578,0.004858622062923138
11218,10073,0.014441161028669578,0.0049382716049382715
11219,10074,0.014441161028669578,0.005017921146953405
11220,10075,0.014441161028669578,0.0050975706889685385
11221,10076,0.014441161028669578,0.005177220230983672
11222,10077,0.014441161028669578,0.0052568697729988055
11223,10078,0.014441161028669578,0.005336519315013939
11224,10079,0.014441161028669578,0.005416168857029072
11225,10080,0.014441161028669578,0.005495818399044205
11226,10082,0.014441161028669578,0.005575467941059339
11227,10085,0.014441161028669578,0.005655117483074472
11228,10086,0.014441161028669578,0.005734767025089606
11229,10088,0.014441161028669578,0.005814416567104739
11230,10089,0.014441161028669578,0.005894066109119873
11231,10091,0.014441161028669578,0.005973715651135006
11232,10092,0.014441161028669578,0.00605336519315014
11233,10093,0.014441161028669578,0.006133014735165272
11234,10097,0.014441161028669578,0.006212664277180406
11235,10098,0.014441161028669578,0.006292313819195539
11236,10099,0.014441161028669578,0.006371963361210673
11237,10100,0.014441161028669578,0.0064516129032258064
11238,10101,0.014441161028669578,0.00653126244524094
11239,10104,0.014441161028669578,0.0066109119872560735
11240,10105,0.014441161028669578,0.006690561529271207
11241,10106,0.014441161028669578,0.0067702110712863405
11242,10107,0.014441161028669578,0.006849860613301473
11243,10109,0.014441161028669578,0.006929510155316607
11244,10110,0.014441161028669578,0.00700915969733174
11245,10111,0.014441161028669578,0.007088809239346874
11246,10113,0.014441161028669578,0.007168458781362007
11247,10115,0.014441161028669578,0.007248108323377141
11248,10116,0.014441161028669578,0.007327757865392274
11249,10119,0.014441161028669578,0.007407407407407408
11250,10120,0.014441161028669578,0.007487056949422541
11251,10121,0.014441161028669578,0.007566706491437674
11252,10122,0.014441161028669578,0.007646356033452807
11253,10123,0.014441161028669578,0.007726005575467941
11254,10126,0.014441161028669578,0.007805655117483074
11255,10127,0.014441161028669578,0.007885304659498209
11256,10129,0.014441161028669578,0.00796495420151334
11257,10132,0.014441161028669578,0.008044603743528474
11258,10133,0.014441161028669578,0.008124253285543608
11259,10134,0.014441161028669578,0.008203902827558741
11260,10135,0.014441161028669578,0.008283552369573875
11261,10136,0.014441161028669578,0.008363201911589008
11262,10137,0.014441161028669578,0.008442851453604142
11263,10138,0.014441161028669578,0.008522500995619275
11264,10139,0.014441161028669578,0.008602150537634409
11265,10140,0.014441161028669578,0.008681800079649542
11266,10142,0.014441161028669578,0.008761449621664676
11267,10143,0.014441161028669578,0.008841099163679809
11268,10145,0.014441161028669578,0.008920748705694943
11269,10148,0.014441161028669578,0.009000398247710076
11270,10149,0.014441161028669578,0.00908004778972521
11271,10150,0.014441161028669578,0.009159697331740343
11272,10152,0.014441161028669578,0.009239346873755477
11273,10153,0.014441161028669578,0.00931899641577061
11274,10154,0.014441161028669578,0.009398645957785742
11275,10157,0.014441161028669578,0.009478295499800875
11276,10158,0.014441161028669578,0.009557945041816009
11277,10160,0.014441161028669578,0.009637594583831142
11278,10162,0.014441161028669578,0.009717244125846276
11279,10163,0.014441161028669578,0.00979689366786141
11280,10164,0.014441161028669578,0.009876543209876543
11281,10165,0.014441161028669578,0.009956192751891677
11282,10166,0.014441161028669578,0.01003584229390681
11283,10167,0.014441161028669578,0.010115491835921944
11284,10168,0.014441161028669578,0.010195141377937077
11285,10169,0.014441161028669578,0.01027479091995221
11286,10170,0.014441161028669578,0.010354440461967344
11287,10172,0.014441161028669578,0.010434090003982478
11288,10173,0.014441161028669578,0.010513739545997611
11289,10174,0.014441161028669578,0.010593389088012745
11290,10177,0.014441161028669578,0.010673038630027878
11291,10178,0.014441161028669578,0.010752688172043012
11292,10179,0.014441161028669578,0.010832337714058143
11293,10180,0.014441161028669578,0.010911987256073277
11294,10181,0.014441161028669578,0.01099163679808841
11295,10182,0.014441161028669578,0.011071286340103544
11296,10184,0.014441161028669578,0.011150935882118677
11297,10185,0.014441161028669578,0.011230585424133811
11298,10186,0.014441161028669578,0.011310234966148944
11299,10187,0.014441161028669578,0.011389884508164078
11300,10188,0.014441161028669578,0.011469534050179211
11301,10189,0.014441161028669578,0.011549183592194345
11302,10190,0.014441161028669578,0.011628833134209478
11303,10192,0.014441161028669578,0.011708482676224612
11304,10196,0.014441161028669578,0.011788132218239745
11305,10197,0.014441161028669578,0.011867781760254879
11306,10198,0.014441161028669578,0.011947431302270013
11307,10199,0.014441161028669578,0.012027080844285146
11308,10200,0.014441161028669578,0.01210673038630028
11309,10201,0.014441161028669578,0.012186379928315413
11310,10202,0.014441161028669578,0.012266029470330545
11311,10205,0.014441161028669578,0.012345679012345678
11312,10206,0.014441161028669578,0.012425328554360812
11313,10211,0.014441161028669578,0.012504978096375945
11314,10212,0.014441161028669578,0.012584627638391079
11315,10213,0.014441161028669578,0.012664277180406212
11316,10214,0.014441161028669578,0.012743926722421346
11317,10215,0.014441161028669578,0.01282357626443648
11318,10216,0.014441161028669578,0.012903225806451613
11319,10217,0.014441161028669578,0.012982875348466746
11320,10219,0.014441161028669578,0.01306252489048188
11321,10220,0.014441161028669578,0.013142174432497013
11322,10221,0.014441161028669578,0.013221823974512147
11323,10222,0.014441161028669578,0.01330147351652728
11324,10223,0.014441161028669578,0.013381123058542414
11325,10225,0.014441161028669578,0.013460772600557547
11326,10226,0.014441161028669578,0.013540422142572681
11327,10231,0.014441161028669578,0.013620071684587814
11328,10234,0.014441161028669578,0.013699721226602946
11329,10235,0.014441161028669578,0.01377937076861808
11330,10236,0.014441161028669578,0.013859020310633213
11331,10237,0.014441161028669578,0.013938669852648347
11332,10239,0.014441161028669578,0.01401831939466348
11333,10241,0.014441161028669578,0.014097968936678614
11334,10242,0.014441161028669578,0.014177618478693747
11335,10243,0.014441161028669578,0.01425726802070888
11336,10244,0.014441161028669578,0.014336917562724014
11337,10245,0.014441161028669578,0.014416567104739148
11338,10246,0.014441161028669578,0.014496216646754281
11339,10250,0.014441161028669578,0.014575866188769415
11340,10251,0.014441161028669578,0.014655515730784548
11341,10252,0.014441161028669578,0.014735165272799682
11342,10253,0.014441161028669578,0.014814814814814815
11343,10255,0.014441161028669578,0.014894464356829949
11344,10257,0.014441161028669578,0.014974113898845082
11345,10258,0.014441161028669578,0.015053763440860216
11346,10259,0.014441161028669578,0.015133412982875348
11347,10261,0.014441161028669578,0.015213062524890481
11348,10262,0.014441161028669578,0.015292712066905615
11349,10263,0.014441161028669578,0.015372361608920748
11350,10264,0.014441161028669578,0.015452011150935882
11351,10265,0.014441161028669578,0.015531660692951015
11352,10267,0.014441161028669578,0.015611310234966149
11353,10269,0.014441161028669578,0.015690959776981282
11354,10270,0.014441161028669578,0.015770609318996417
11355,10271,0.014441161028669578,0.01585025886101155
11356,10272,0.014441161028669578,0.01592990840302668
11357,10273,0.014441161028669578,0.016009557945041816
11358,10274,0.014441161028669578,0.016089207487056948
11359,10275,0.014441161028669578,0.016168857029072083
11360,10276,0.014441161028669578,0.016248506571087215
11361,10277,0.014441161028669578,0.01632815611310235
11362,10278,0.014441161028669578,0.016407805655117482
11363,10279,0.014441161028669578,0.016487455197132617
11364,10282,0.014441161028669578,0.01656710473914775
11365,10284,0.014441161028669578,0.016646754281162884
11366,10285,0.014441161028669578,0.016726403823178016
11367,10286,0.014441161028669578,0.01680605336519315
11368,10287,0.014441161028669578,0.016885702907208283
11369,10288,0.014441161028669578,0.01696535244922342
11370,10289,0.014441161028669578,0.01704500199123855
11371,10290,0.014441161028669578,0.017124651533253685
11372,10291,0.014441161028669578,0.017204301075268817
11373,10292,0.014441161028669578,0.01728395061728395
11374,10293,0.014441161028669578,0.017363600159299084
11375,10294,0.014441161028669578,0.017443249701314216
11376,10295,0.014441161028669578,0.01752289924332935
11377,10296,0.014441161028669578,0.017602548785344483
11378,10297,0.014441161028669578,0.017682198327359618
11379,10298,0.014441161028669578,0.01776184786937475
11380,10299,0.014441161028669578,0.017841497411389885
11381,10300,0.014441161028669578,0.017921146953405017
11382,10302,0.014441161028669578,0.018000796495420152
11383,10304,0.014441161028669578,0.018080446037435284
11384,10305,0.014441161028669578,0.01816009557945042
11385,10306,0.014441161028669578,0.01823974512146555
11386,10307,0.014441161028669578,0.018319394663480686
11387,10308,0.014441161028669578,0.018399044205495818
11388,10309,0.014441161028669578,0.018478693747510953
11389,10312,0.014441161028669578,0.018558343289526085
11390,10313,0.014441161028669578,0.01863799283154122
11391,10314,0.014441161028669578,0.018717642373556352
11392,10315,0.014441161028669578,0.018797291915571484
11393,10316,0.014441161028669578,0.01887694145758662
11394,10317,0.014441161028669578,0.01895659099960175
11395,10318,0.014441161028669578,0.019036240541616886
11396,10322,0.014441161028669578,0.019115890083632018
11397,10324,0.014441161028669578,0.019195539625647153
11398,10325,0.014441161028669578,0.019275189167662285
11399,10326,0.014441161028669578,0.01935483870967742
11400,10330,0.014441161028669578,0.019434488251692552
11401,10333,0.014441161028669578,0.019514137793707687
11402,10334,0.014441161028669578,0.01959378733572282
11403,10337,0.014441161028669578,0.019673436877737954
11404,10338,0.014441161028669578,0.019753086419753086
11405,10339,0.014441161028669578,0.01983273596176822
11406,10341,0.014441161028669578,0.019912385503783353
11407,10343,0.014441161028669578,0.01999203504579849
11408,10344,0.014441161028669578,0.02007168458781362
11409,10346,0.014441161028669578,0.020151334129828752
11410,10347,0.014441161028669578,0.020230983671843887
11411,10348,0.014441161028669578,0.02031063321385902
11412,10349,0.014441161028669578,0.020390282755874154
11413,10350,0.014441161028669578,0.020469932297889286
11414,10352,0.014441161028669578,0.02054958183990442
11415,10358,0.014441161028669578,0.020629231381919553
11416,10359,0.014441161028669578,0.020708880923934688
11417,10361,0.014441161028669578,0.02078853046594982
11418,10364,0.014441161028669578,0.020868180007964955
11419,10365,0.014441161028669578,0.020947829549980087
11420,10366,0.014441161028669578,0.021027479091995222
11421,10369,0.014441161028669578,0.021107128634010354
11422,10370,0.014441161028669578,0.02118677817602549
11423,10371,0.014441161028669578,0.02126642771804062
11424,10374,0.014441161028669578,0.021346077260055756
11425,10375,0.014441161028669578,0.021425726802070888
11426,10376,0.014441161028669578,0.021505376344086023
11427,10377,0.014441161028669578,0.021585025886101155
11428,10379,0.014441161028669578,0.021664675428116287
11429,10383,0.014441161028669578,0.021744324970131422
11430,10384,0.014441161028669578,0.021823974512146554
11431,10385,0.014441161028669578,0.02190362405416169
11432,10387,0.014441161028669578,0.02198327359617682
11433,10389,0.014441161028669578,0.022062923138191956
11434,10391,0.014441161028669578,0.022142572680207088
11435,10392,0.014441161028669578,0.022222222222222223
11436,10393,0.014441161028669578,0.022301871764237355
11437,10394,0.014441161028669578,0.02238152130625249
11438,10395,0.014441161028669578,0.022461170848267622
11439,10396,0.014441161028669578,0.022540820390282757
11440,10397,0.014441161028669578,0.02262046993229789
11441,10398,0.014441161028669578,0.022700119474313024
11442,10399,0.014441161028669578,0.022779769016328156
11443,10400,0.014441161028669578,0.02285941855834329
11444,10401,0.014441161028669578,0.022939068100358423
11445,10402,0.014441161028669578,0.023018717642373555
11446,10403,0.014441161028669578,0.02309836718438869
11447,10404,0.014441161028669578,0.02317801672640382
11448,10405,0.014441161028669578,0.023257666268418957
11449,10406,0.014441161028669578,0.02333731581043409
11450,10407,0.014441161028669578,0.023416965352449224
11451,10408,0.014441161028669578,0.023496614894464356
11452,10409,0.014441161028669578,0.02357626443647949
11453,10411,0.014441161028669578,0.023655913978494623
11454,10415,0.014441161028669578,0.023735563520509758
11455,10416,0.014441161028669578,0.02381521306252489
11456,10419,0.014441161028669578,0.023894862604540025
11457,10420,0.014441161028669578,0.023974512146555157
11458,10421,0.014441161028669578,0.024054161688570292
11459,10422,0.014441161028669578,0.024133811230585424
11460,10423,0.014441161028669578,0.02421346077260056
11461,10424,0.014441161028669578,0.02429311031461569
11462,10425,0.014441161028669578,0.024372759856630826
11463,10426,0.014441161028669578,0.024452409398645958
11464,10428,0.014441161028669578,0.02453205894066109
11465,10429,0.014441161028669578,0.024611708482676225
11466,10430,0.014441161028669578,0.024691358024691357
11467,10431,0.014441161028669578,0.024771007566706492
11468,10432,0.014441161028669578,0.024850657108721624
11469,10434,0.014441161028669578,0.02493030665073676
11470,10435,0.014441161028669578,0.02500995619275189
11471,10436,0.014441161028669578,0.025089605734767026
11472,10437,0.014441161028669578,0.025169255276782158
11473,10438,0.014441161028669578,0.025248904818797293
11474,10439,0.014441161028669578,0.025328554360812425
11475,10440,0.014441161028669578,0.02540820390282756
11476,10441,0.014441161028669578,0.025487853444842692
11477,10442,0.014441161028669578,0.025567502986857827
11478,10444,0.014441161028669578,0.02564715252887296
11479,10446,0.014441161028669578,0.025726802070888094
11480,10448,0.014441161028669578,0.025806451612903226
11481,10449,0.014441161028669578,0.025886101154918358
11482,10450,0.014441161028669578,0.025965750696933493
11483,10452,0.014441161028669578,0.026045400238948625
11484,10453,0.014441161028669578,0.02612504978096376
11485,10454,0.014441161028669578,0.02620469932297889
11486,10455,0.014441161028669578,0.026284348864994027
11487,10457,0.014441161028669578,0.02636399840700916
11488,10459,0.014441161028669578,0.026443647949024294
11489,10460,0.014441161028669578,0.026523297491039426
11490,10461,0.014441161028669578,0.02660294703305456
11491,10462,0.014441161028669578,0.026682596575069693
11492,10464,0.014441161028669578,0.026762246117084828
11493,10465,0.014441161028669578,0.02684189565909996
11494,10466,0.014441161028669578,0.026921545201115095
11495,10467,0.014441161028669578,0.027001194743130227
11496,10470,0.014441161028669578,0.027080844285145362
11497,10471,0.014441161028669578,0.027160493827160494
11498,10473,0.014441161028669578,0.02724014336917563
11499,10474,0.014441161028669578,0.02731979291119076
11500,10476,0.014441161028669578,0.027399442453205893
11501,10477,0.014441161028669578,0.027479091995221028
11502,10478,0.014441161028669578,0.02755874153723616
11503,10479,0.014441161028669578,0.027638391079251295
11504,10481,0.014441161028669578,0.027718040621266427
11505,10483,0.014441161028669578,0.027797690163281562
11506,10484,0.014441161028669578,0.027877339705296694
11507,10486,0.014441161028669578,0.02795698924731183
11508,10487,0.014441161028669578,0.02803663878932696
11509,10488,0.014441161028669578,0.028116288331342096
11510,10489,0.014441161028669578,0.028195937873357228
11511,10490,0.014441161028669578,0.028275587415372363
11512,10492,0.014441161028669578,0.028355236957387495
11513,10493,0.014441161028669578,0.02843488649940263
11514,10494,0.014441161028669578,0.02851453604141776
11515,10495,0.014441161028669578,0.028594185583432897
11516,10496,0.014441161028669578,0.02867383512544803
11517,10499,0.014441161028669578,0.02875348466746316
11518,10500,0.014441161028669578,0.028833134209478296
11519,10505,0.014441161028669578,0.028912783751493427
11520,10506,0.014441161028669578,0.028992433293508563
11521,10507,0.014441161028669578,0.029072082835523694
11522,10509,0.014441161028669578,0.02915173237753883
11523,10511,0.014441161028669578,0.02923138191955396
11524,10513,0.014441161028669578,0.029311031461569097
11525,10514,0.014441161028669578,0.02939068100358423
