,Request Id,request_scheduling_delay,cdf
1,1,0.0,0.00012696800406297612
3,3,0.0,0.00025393600812595224
5,5,0.0,0.0003809040121889284
7,7,0.0,0.0005078720162519045
9,9,0.0,0.0006348400203148807
11,11,0.0,0.0007618080243778568
13,13,0.0,0.0008887760284408329
15,15,0.0,0.001015744032503809
17,17,0.0,0.0011427120365667851
19,19,0.0,0.0012696800406297613
21,21,0.0,0.0013966480446927375
23,23,0.0,0.0015236160487557136
25,25,0.0,0.0016505840528186896
27,27,0.0,0.0017775520568816658
29,29,0.0,0.001904520060944642
31,31,0.0,0.002031488065007618
33,33,0.0,0.0021584560690705943
35,35,0.0,0.0022854240731335703
37,37,0.0,0.0024123920771965466
39,39,0.0,0.0025393600812595226
41,41,0.0,0.0026663280853224986
43,43,0.0,0.002793296089385475
45,45,0.0,0.002920264093448451
47,47,0.0,0.0030472320975114273
51,51,0.0,0.0031742001015744033
53,53,0.0,0.003301168105637379
55,55,0.0,0.0034281361097003556
57,57,0.0,0.0035551041137633316
59,59,0.0,0.003682072117826308
61,61,0.0,0.003809040121889284
63,63,0.0,0.00393600812595226
65,65,0.0,0.004062976130015236
67,67,0.0,0.004189944134078212
69,69,0.0,0.004316912138141189
71,71,0.0,0.004443880142204164
75,75,0.0,0.0045708481462671405
79,79,0.0,0.004697816150330117
81,81,0.0,0.004824784154393093
83,83,0.0,0.004951752158456069
85,85,0.0,0.005078720162519045
87,87,0.0,0.005205688166582022
89,89,0.0,0.005332656170644997
93,93,0.0,0.0054596241747079735
101,101,0.0,0.00558659217877095
103,103,0.0,0.005713560182833925
105,105,0.0,0.005840528186896902
107,107,0.0,0.005967496190959878
113,113,0.0,0.006094464195022855
115,115,0.0,0.00622143219908583
117,117,0.0,0.0063484002031488065
119,119,0.0,0.006475368207211783
121,121,0.0,0.006602336211274758
123,123,0.0,0.006729304215337735
125,125,0.0,0.006856272219400711
127,127,0.0,0.006983240223463687
195,195,0.0,0.007110208227526663
197,197,0.0,0.0072371762315896395
199,199,0.0,0.007364144235652616
201,201,0.0,0.007491112239715591
203,203,0.0,0.007618080243778568
205,205,0.0,0.007745048247841544
207,207,0.0,0.00787201625190452
211,211,0.0,0.007998984255967496
213,213,0.0,0.008125952260030472
215,215,0.0,0.008252920264093449
219,219,0.0,0.008379888268156424
221,221,0.0,0.0085068562722194
223,223,0.0,0.008633824276282377
225,225,0.0,0.008760792280345353
227,227,0.0,0.008887760284408328
231,231,0.0,0.009014728288471306
233,233,0.0,0.009141696292534281
235,235,0.0,0.009268664296597258
245,245,0.0,0.009395632300660234
91,91,0.0008925177581908805,0.00952260030472321
239,239,0.001098225767182548,0.009649568308786187
49,49,0.001347755861330402,0.009776536312849162
0,0,0.001371442,0.009903504316912138
44,44,0.001718529999999996,0.010030472320975115
77,77,0.002962226428669723,0.01015744032503809
241,241,0.0033187051507743703,0.010284408329101066
220,220,0.0038727610000002244,0.010411376333164043
118,118,0.004160055999999912,0.010538344337227019
48,48,0.005108543861330306,0.010665312341289994
95,95,0.005375759364391275,0.010792280345352971
99,99,0.00551103839589695,0.010919248349415947
42,42,0.005997441999999964,0.011046216353478923
52,52,0.006021402000000009,0.0111731843575419
76,76,0.006050565428669774,0.011300152361604875
86,86,0.006177043999999965,0.01142712036566785
249,249,0.006551561767182967,0.011554088369730828
40,40,0.00712300999999993,0.011681056373793804
4,4,0.008261831999999997,0.011808024377856781
226,226,0.00839000899999931,0.011934992381919756
32,32,0.00844064500000008,0.012061960385982732
229,229,0.008627746383591095,0.01218892839004571
237,237,0.008759853383591754,0.012315896394108685
98,98,0.009077558395897078,0.01244286439817166
236,236,0.009246471383591803,0.012569832402234637
102,102,0.009311740999999873,0.012696800406297613
73,73,0.009500428561825425,0.012823768410360589
209,209,0.009584494516924558,0.012950736414423566
247,247,0.010071836383591659,0.013077704418486541
106,106,0.010352139000000093,0.013204672422549517
210,210,0.010798519999999812,0.013331640426612494
109,109,0.011161171405452919,0.01345860843067547
6,6,0.011194464000000001,0.013585576434738445
72,72,0.011268726561825426,0.013712544438801422
68,68,0.011387661999999965,0.013839512442864398
214,214,0.011509701000000483,0.013966480446927373
97,97,0.011694643380144587,0.01409344845099035
244,244,0.011920510000000384,0.014220416455053326
204,204,0.01193734000000024,0.014347384459116303
206,206,0.011956489000000126,0.014474352463179279
240,240,0.013067616150774342,0.014601320467242255
238,238,0.01318857676718288,0.014728288471305232
82,82,0.013218475999999812,0.014855256475368207
62,62,0.013744439000000108,0.014982224479431183
60,60,0.01396617099999986,0.01510919248349416
90,90,0.014106635758190933,0.015236160487557136
208,208,0.01430763451692485,0.015363128491620111
112,112,0.014406717999999596,0.015490096495683088
54,54,0.014598957000000023,0.015617064499746064
217,217,0.015053391383591297,0.01574403250380904
64,64,0.015244529000000062,0.015871000507872015
34,34,0.015378738000000003,0.015997968511934992
78,78,0.01570171000000009,0.01612493651599797
30,30,0.01605093599999996,0.016251904520060943
216,216,0.016187976383591263,0.01637887252412392
12,12,0.016251504,0.016505840528186898
243,243,0.016264322534365938,0.01663280853224987
126,126,0.016363060999999846,0.01675977653631285
108,108,0.016609658405453143,0.016886744540375826
114,114,0.01688698799999999,0.0170137125444388
50,50,0.017056613000000054,0.017140680548501777
96,96,0.01719619738014444,0.017267648552564754
242,242,0.017284748534365235,0.017394616556627728
228,228,0.017536621383591466,0.017521584560690705
94,94,0.018229792364391262,0.017648552564753683
56,56,0.018330538999999924,0.017775520568816656
251,251,0.01866911715077446,0.017902488572879634
80,80,0.01907968400000004,0.01802945657694261
246,246,0.019111798383591783,0.018156424581005588
250,250,0.019829928150774556,0.018283392585068562
20,20,0.020160460000000047,0.01841036058913154
92,92,0.020280125999999843,0.018537328593194517
232,232,0.021672711999999983,0.01866429659725749
248,248,0.021786139767183244,0.018791264601320468
212,212,0.022436354999999963,0.018918232605383445
66,66,0.023144794000000024,0.01904520060944642
202,202,0.023965153999999877,0.019172168613509396
253,253,0.024723402534365668,0.019299136617572373
58,58,0.025269023999999973,0.019426104621635347
198,198,0.025448313000000056,0.019553072625698324
18,18,0.025496351000000028,0.0196800406297613
111,111,0.02560982141090573,0.019807008633824275
196,196,0.02566199000000058,0.019933976637887253
104,104,0.026231222000000276,0.02006094464195023
116,116,0.026907696000000314,0.020187912646013204
26,26,0.027706624000000013,0.02031488065007618
22,22,0.028643157000000086,0.020441848654139158
100,100,0.029048522000000077,0.020568816658202132
16,16,0.029229702999999996,0.02069578466226511
110,110,0.02956466341090591,0.020822752666328086
252,252,0.03173740453436569,0.02094972067039106
2,2,0.032900411000000004,0.021076688674454037
234,234,0.03339979900000056,0.021203656678517015
36,36,0.03434603200000008,0.02133062468257999
200,200,0.036786531999999816,0.021457592686642966
120,120,0.037958120999999956,0.021584560690705943
10,10,0.03918575500000002,0.021711528694768917
124,124,0.04151559800000015,0.021838496698831894
38,38,0.042097097999999944,0.02196546470289487
218,218,0.0424268320000003,0.022092432706957845
8,8,0.043792867999999985,0.022219400711020822
46,46,0.04410128000000002,0.0223463687150838
255,255,0.04410923791795707,0.022473336719146773
254,254,0.04424878991795733,0.02260030472320975
14,14,0.04501257400000003,0.022727272727272728
70,70,0.045156329000000106,0.0228542407313357
224,224,0.04764231399999996,0.02298120873539868
122,122,0.04779766100000016,0.023108176739461656
84,84,0.05398401200000014,0.023235144743524633
88,88,0.05402795000000005,0.023362112747587607
230,230,0.05423522400000014,0.023489080751650585
222,222,0.060195344999999456,0.023616048755713562
194,194,0.07002196699999974,0.023743016759776536
28,28,0.07397992399999997,0.023869984763839513
191,191,0.0803906977031259,0.02399695276790249
193,193,0.0818352122200503,0.024123920771965464
192,192,0.08395118722005046,0.02425088877602844
74,74,0.08643128900000008,0.02437785678009142
24,24,0.09152277900000005,0.024504824784154392
190,190,0.12791770370312605,0.02463179278821737
189,189,0.14980502318620115,0.024758760792280347
187,187,0.15894518766927668,0.02488572879634332
186,186,0.1631361066692767,0.025012696800406298
183,183,0.17454535363542778,0.025139664804469275
182,182,0.17712829163542754,0.02526663280853225
188,188,0.17779354618620147,0.025393600812595226
185,185,0.18887260515235216,0.025520568816658203
175,175,0.1927605905677292,0.025647536820721177
184,184,0.19380150315235234,0.025774504824784154
177,177,0.196690141084654,0.02590147282884713
176,176,0.20057086108465372,0.026028440832910105
181,181,0.21154667811850292,0.026155408836973083
179,179,0.21539270060157856,0.02628237684103606
178,178,0.21554347860157863,0.026409344845099034
180,180,0.23306161611850307,0.02653631284916201
173,173,0.234745173050805,0.026663280853224988
172,172,0.23685716305080495,0.026790248857287962
171,171,0.24108745253388042,0.02691721686135094
174,174,0.24144525356772917,0.027044184865413917
167,167,0.252376579500031,0.02717115286947689
169,169,0.25672198801695556,0.027298120873539868
168,168,0.2571615000169558,0.027425088877602845
170,170,0.27665871553388044,0.02755205688166582
165,165,0.31189399598310663,0.027679024885728796
163,163,0.3223219924661822,0.027805992889791773
164,164,0.32886978998310656,0.027932960893854747
166,166,0.3311706745000311,0.028059928897917724
161,161,0.35911268294925724,0.0281868969019807
162,162,0.3688741934661821,0.02831386490604368
160,160,0.4121750179492576,0.028440832910106652
159,159,0.4235739354323327,0.02856780091416963
158,158,0.4283747204323327,0.028694768918232607
153,153,0.4368824318815592,0.02882173692229558
157,157,0.4390322119154084,0.028948704926358558
155,155,0.44327041539848366,0.029075672930421535
156,156,0.44782437891540816,0.02920264093448451
154,154,0.4489723003984838,0.029329608938547486
151,151,0.4567692803646346,0.029456576942610464
149,149,0.46596196684770996,0.029583544946673437
152,152,0.466350144881559,0.029710512950736415
147,147,0.4698164763307857,0.029837480954799392
148,148,0.4735356928477099,0.029964448958862366
150,150,0.4788143313646347,0.030091416962925343
146,146,0.5020050663307853,0.03021838496698832
143,143,0.5158147332969363,0.030345352971051294
137,137,0.5204894707461629,0.03047232097511427
139,139,0.5240932882630873,0.03059928897917725
145,145,0.526280989813861,0.030726256983240222
144,144,0.527811030813861,0.0308532249873032
135,135,0.5285392302292382,0.030980192991366177
142,142,0.5303771002969366,0.03110716099542915
141,141,0.5335176637800116,0.031234128999492128
140,140,0.5335847837800118,0.031361097003555105
138,138,0.5397507622630875,0.03148806500761808
136,136,0.5481366537461629,0.03161503301168106
131,131,0.557370594195389,0.03174200101574403
133,133,0.5683286237123135,0.03186896901980701
132,132,0.5768574227123136,0.031995937023869984
134,134,0.5828087402292383,0.03212290502793296
129,129,0.5835753076784647,0.03224987303199594
130,130,0.5871079371953889,0.032376841036058916
128,128,0.6162701366784646,0.03250380904012189
257,257,0.6759604775964112,0.032630777044184864
256,256,0.6801175035964109,0.03275774504824784
259,259,0.6943294231133361,0.03288471305231082
258,258,0.696023598113336,0.033011681056373796
261,261,0.7114164746302603,0.03313864906043677
260,260,0.71290822663026,0.03326561706449974
263,263,0.7225997201471852,0.03339258506856272
262,262,0.730241828147185,0.0335195530726257
265,265,0.7363390646641097,0.033646521076688675
264,264,0.7425490526641099,0.03377348908075165
267,267,0.7551087691810343,0.03390045708481463
266,266,0.7561655811810342,0.0340274250888776
269,269,0.7700624566979588,0.03415439309294058
268,268,0.7701218046979585,0.034281361097003554
271,271,0.7888656252148829,0.03440832910106653
270,270,0.7890430072148833,0.03453529710512951
273,273,0.7970710447318075,0.034662265109192486
272,272,0.8054992007318074,0.034789233113255456
275,275,0.8084542742487324,0.034916201117318434
274,274,0.8131593122487324,0.03504316912138141
277,277,0.825570668765657,0.03517013712544439
276,276,0.8282248877656571,0.035297105129507365
279,279,0.842341941282581,0.03542407313357034
278,278,0.8434247202825818,0.03555104113763331
281,281,0.852184938799506,0.03567800914169629
280,280,0.857460022799506,0.03580497714575927
283,283,0.8597769653164304,0.035931945149822245
282,282,0.8702084813164301,0.03605891315388522
285,285,0.874425063833355,0.0361858811579482
284,284,0.875342725833355,0.036312849162011177
287,287,0.8884210573502793,0.03643981716607415
286,286,0.8884873843502792,0.036566785170137124
289,289,0.8996082378672039,0.0366937531742001
288,288,0.9010052638672041,0.03682072117826308
291,291,0.9163402873841289,0.036947689182326056
290,290,0.9175040123841285,0.03707465718638903
293,293,0.9249637839010534,0.037201625190452
292,292,0.931623702901053,0.03732859319451498
295,295,0.9418844174179775,0.03745556119857796
294,294,0.9421099484179782,0.037582529202640935
297,297,0.955021802934902,0.03770949720670391
767,767,0.9612235881635289,0.03783646521076689
296,296,0.9614175139349026,0.03796343321482986
761,761,0.9667233060127582,0.03809040121889284
763,763,0.9679156533963482,0.038217369222955815
765,765,0.9696588807799387,0.03834433722701879
299,299,0.974771498451827,0.03847130523108177
298,298,0.9751523784518268,0.038598273235144746
766,766,0.9754186881635292,0.03872524123920772
764,764,0.9783654107799382,0.038852209243270694
762,762,0.9851859233963474,0.03897917724733367
301,301,0.9917061189687519,0.03910614525139665
300,300,0.9929836839687516,0.039233113255459626
760,760,0.9968378260127579,0.0393600812595226
759,759,1.0003260286291678,0.03948704926358557
758,758,1.0004589286291665,0.03961401726764855
757,757,1.0009872912455773,0.03974098527171153
303,303,1.0090532384856763,0.039867953275774505
302,302,1.009177722485676,0.03999492127983748
756,756,1.0168511812455758,0.04012188928390046
305,305,1.0211602700026008,0.04024885728796343
304,304,1.0226722500026009,0.04037582529202641
307,307,1.0273390095195252,0.040502793296089384
306,306,1.028101533519525,0.04062976130015236
309,309,1.0433926850364497,0.04075672930421534
308,308,1.0469130410364498,0.040883697308278316
311,311,1.0516120875533748,0.04101066531234129
310,310,1.0585757515533745,0.041137633316404264
313,313,1.0683869650702986,0.04126460132046724
312,312,1.0693257280702992,0.04139156932453022
315,315,1.0808663945872237,0.041518537328593196
314,314,1.0834113735872233,0.04164550533265617
753,753,1.0940221164783956,0.04177247333671915
317,317,1.0975925991041482,0.04189944134078212
316,316,1.1003591021041483,0.0420264093448451
755,755,1.1005838138619861,0.042153377348908075
754,754,1.1032915238619854,0.04228034535297105
752,752,1.1095603764783952,0.04240731335703403
319,319,1.112492381621073,0.04253428136109701
318,318,1.1165993726210726,0.04266124936515998
321,321,1.1187931221379968,0.042788217369222954
751,751,1.129839799094805,0.04291518537328593
320,320,1.1304304151379974,0.04304215337734891
323,323,1.133982601654922,0.043169121381411886
750,750,1.1370400390948046,0.04329608938547486
322,322,1.138776832654922,0.043423057389537834
325,325,1.1484484771718462,0.04355002539360081
324,324,1.1516205951718463,0.04367699339766379
327,327,1.1674176876887712,0.043803961401726765
326,326,1.167500361688771,0.04393092940578974
329,329,1.1785852382056952,0.04405789740985272
328,328,1.1864214662056956,0.04418486541391569
331,331,1.19359376272262,0.04431183341797867
330,330,1.19474098172262,0.044438801422041645
333,333,1.2099255182395448,0.04456576942610462
332,332,1.2115639992395444,0.0446927374301676
335,335,1.2255578447564694,0.044819705434230576
749,749,1.226137861711214,0.04494667343829355
748,748,1.2267348717112139,0.045073641442356524
334,334,1.2288130467564686,0.0452006094464195
337,337,1.2427382072733932,0.04532757745048248
336,336,1.2444896652733934,0.045454545454545456
745,745,1.244774356944033,0.04558151345860843
743,743,1.2484299095604428,0.0457084814626714
747,747,1.2488061243276238,0.04583544946673438
339,339,1.2512666137903183,0.04596241747079736
744,744,1.253932246944034,0.046089385474860335
341,341,1.2550811651739098,0.04621635347892331
338,338,1.260590884790318,0.04634332148298629
746,746,1.2629042143276248,0.04647028948704927
343,343,1.2662356735575013,0.04659725749111224
340,340,1.2662400411739094,0.046724225495175215
342,342,1.2681187915575007,0.04685119349923819
789,789,1.2812094580112579,0.04697816150330117
345,345,1.2827135849410922,0.047105129507364146
344,344,1.285513876941092,0.047232097511427124
739,739,1.2873363047932624,0.047359065515490094
735,735,1.287485390026081,0.04748603351955307
791,791,1.2891482115281825,0.04761300152361605
793,793,1.2910921550451082,0.047739969527679026
741,741,1.2912611021768523,0.047866937531742
790,790,1.2920457515281836,0.04799390553580498
347,347,1.292530146324684,0.04812087353986795
792,792,1.2934286050451078,0.04824784154393093
737,737,1.2943039674096717,0.048374809547993905
346,346,1.2946372853246837,0.04850177755205688
742,742,1.2962341495604424,0.04862874555611986
738,738,1.298381694793262,0.04875571356018284
740,740,1.2993709321768527,0.04888268156424581
349,349,1.2993894147082754,0.049009649568308784
736,736,1.300931367409671,0.04913661757237176
348,348,1.3011119417082755,0.04926358557643474
795,795,1.3107726185620336,0.049390553580497716
794,794,1.3111022285620333,0.04951752158456069
351,351,1.3134720570918663,0.049644489588623664
788,788,1.3137055480112565,0.04977145759268664
734,734,1.3171563400260808,0.04989842559674962
350,350,1.3175601260918661,0.050025393600812595
787,787,1.3244033044943322,0.05015236160487557
797,797,1.3277825420789586,0.05027932960893855
353,353,1.3287608874754575,0.05040629761300152
786,786,1.3308399844943324,0.0505332656170645
796,796,1.3310357820789598,0.050660233621127475
352,352,1.3317921454754575,0.05078720162519045
785,785,1.3425377309774067,0.05091416962925343
355,355,1.3427101198590492,0.05104113763331641
639,639,1.3434360318521215,0.051168105637379384
799,799,1.345089205595885,0.051295073641442354
798,798,1.3473382955958844,0.05142204164550533
354,354,1.347814414859049,0.05154900964956831
637,637,1.3508074514685298,0.051675977653631286
638,638,1.3545588088521203,0.05180294565769426
783,783,1.3580290074604804,0.05192991366175724
357,357,1.3581556472426408,0.05205688166582021
784,784,1.3595223409774064,0.05218384966988319
356,356,1.359708182242641,0.052310817673946165
801,801,1.3600597691128105,0.05243778567800914
800,800,1.36024572911281,0.05256475368207212
635,635,1.36184849008494,0.0526917216861351
634,634,1.3651197150849406,0.05281868969019807
733,733,1.3672963926424906,0.052945657694261045
803,803,1.368874922629736,0.05307262569832402
782,782,1.3710012874604818,0.053199593702387
731,731,1.3725879252589,0.053326561706449976
732,732,1.372733862642491,0.053453529710512954
359,359,1.3731318006262319,0.053580497714575924
636,636,1.3744947004685297,0.0537074657186389
358,358,1.374730891626232,0.05383443372270188
613,613,1.3756822348654456,0.053961401726764856
802,802,1.3800166926297361,0.05408836973082783
615,615,1.3819136042490356,0.05421533773489081
617,617,1.3845083626326264,0.05434230573895378
781,781,1.3846411339435551,0.05446927374301676
780,780,1.3847757239435552,0.054596241747079735
616,616,1.3850203346326264,0.05472320975114271
612,612,1.3854266348654445,0.05485017775520569
614,614,1.385836324249036,0.05497714575926867
631,631,1.3865629283177583,0.05510411376333164
633,633,1.3867669447013498,0.055231081767394614
805,805,1.3878099361466614,0.05535804977145759
627,627,1.388535973550578,0.05548501777552057
804,804,1.3890284661466605,0.055611985779583546
807,807,1.3893957996635855,0.055738953783646523
730,730,1.389639235258901,0.055865921787709494
361,361,1.3898491770098236,0.05599288979177247
729,729,1.39035467787531,0.05611985779583545
360,360,1.3908990400098231,0.056246825799898426
806,806,1.3928004496635857,0.0563737938039614
