,Request Id,decode_time_execution_plus_preemption_normalized,cdf
0,0,0.012973115734174076,8.581481163648846e-05
1,1,0.013010461609482533,0.00017162962327297692
2,2,0.013047281249291562,0.0002574444349094654
3,3,0.01308406872927772,0.00034325924654595385
4,5,0.013191794023486934,0.0004290740581824423
5,6,0.013224882413069048,0.0005148888698189308
6,7,0.013257858686907202,0.0006007036814554192
7,8,0.013290827357345462,0.0006865184930919077
8,9,0.013323793167593492,0.0007723333047283961
9,10,0.013356755219215073,0.0008581481163648846
10,11,0.013389630924023989,0.000943962928001373
11,12,0.013422267068506893,0.0010297777396378615
12,13,0.013453710510458008,0.00111559255127435
13,14,0.01348449963704458,0.0012014073629108384
14,15,0.013515240626799534,0.0012872221745473269
15,16,0.01354594439177206,0.0013730369861838154
16,17,0.013576627626144805,0.0014588517978203037
17,18,0.013607292162610475,0.0015446666094567922
18,19,0.013637776909735949,0.0016304814210932807
19,20,0.013668170742527292,0.0017162962327297692
20,21,0.013699817755874937,0.0018021110443662575
21,22,0.013731461632961477,0.001887925856002746
22,23,0.013763109102267518,0.0019737406676392346
23,24,0.013794754088981271,0.002059555479275723
24,26,0.013840484132931867,0.0021453702909122116
25,27,0.013872081287659061,0.0022311851025487
26,28,0.013902716658515203,0.002316999914185188
27,29,0.013932110358624562,0.0024028147258216767
28,30,0.013961504357895949,0.0024886295374581652
29,31,0.013990901992696134,0.0025744443490946537
30,32,0.014020296121401711,0.0026602591607311423
31,33,0.01404969036343666,0.0027460739723676308
32,34,0.014079085487503883,0.0028318887840041193
33,36,0.014122612665596456,0.0029177035956406074
34,37,0.014148797828410924,0.003003518407277096
35,38,0.014175018250507775,0.0030893332189135844
36,39,0.01420117778661139,0.003175148030550073
37,40,0.014227145875735047,0.0032609628421865614
38,41,0.014252275987448992,0.00334677765382305
39,42,0.014277160623630027,0.0034325924654595385
40,43,0.014302000397120651,0.003518407277096027
41,44,0.014319493109502868,0.003604222088732515
42,46,0.014344871370857803,0.0036900369003690036
43,47,0.014360722922300341,0.003775851712005492
44,48,0.014376198047385018,0.0038616665236419806
45,49,0.014443691974105125,0.003947481335278469
46,50,0.014458918135005789,0.004033296146914957
47,51,0.014474075069458423,0.004119110958551446
48,52,0.014488994169870555,0.004204925770187934
49,53,0.014500201505793094,0.004290740581824423
50,54,0.014511398590484902,0.004376555393460911
51,55,0.014574733414113052,0.0044623702050974
52,56,0.014585855896172655,0.004548185016733888
53,57,0.01459677086560195,0.004633999828370376
54,58,0.014607630852232538,0.004719814640006865
159,170,0.01461303535945306,0.004805629451643353
160,171,0.01461303535945306,0.004891444263279842
161,172,0.01461303535945306,0.0049772590749163305
162,173,0.01461303535945306,0.005063073886552819
163,174,0.01461303535945306,0.0051488886981893075
164,175,0.01461303535945306,0.005234703509825796
165,176,0.01461303535945306,0.0053205183214622845
166,177,0.01461303535945306,0.005406333133098773
167,178,0.01461303535945306,0.0054921479447352615
155,166,0.014615755382656524,0.00557796275637175
156,167,0.014615755382656524,0.005663777568008239
157,168,0.014615755382656524,0.005749592379644727
158,169,0.014615755382656524,0.005835407191281215
55,59,0.014618462462761599,0.005921222002917704
56,60,0.014620586422581652,0.006007036814554192
57,61,0.014630147944516518,0.006092851626190681
154,165,0.014632067062656469,0.006178666437827169
58,63,0.014640124248093911,0.006264481249463658
59,64,0.014649454353139676,0.006350296061100146
60,65,0.014658418231292832,0.006436110872736634
168,179,0.01466518166567682,0.006521925684373123
169,180,0.01466518166567682,0.006607740496009611
170,181,0.01466518166567682,0.0066935553076461
171,182,0.01466518166567682,0.006779370119282588
172,183,0.01466518166567682,0.006865184930919077
173,184,0.01466518166567682,0.006950999742555565
174,185,0.01466518166567682,0.007036814554192054
175,186,0.01466518166567682,0.007122629365828542
176,187,0.01466518166567682,0.00720844417746503
177,188,0.01466518166567682,0.007294258989101519
178,189,0.01466518166567682,0.007380073800738007
179,190,0.01466518166567682,0.007465888612374496
180,191,0.01466518166567682,0.007551703424010984
181,192,0.01466518166567682,0.007637518235647473
182,193,0.01466518166567682,0.007723333047283961
183,194,0.01466518166567682,0.007809147858920449
184,195,0.01466518166567682,0.007894962670556938
185,196,0.01466518166567682,0.007980777482193427
208,220,0.014666019557141797,0.008066592293829914
209,221,0.014666019557141797,0.008152407105466403
210,222,0.014666019557141797,0.008238221917102892
211,223,0.014666019557141797,0.008324036728739381
212,224,0.014666019557141797,0.008409851540375868
213,225,0.014666019557141797,0.008495666352012357
61,66,0.014667071725094318,0.008581481163648846
202,214,0.01466882265234526,0.008667295975285334
203,215,0.01466882265234526,0.008753110786921823
204,216,0.01466882265234526,0.008838925598558312
205,217,0.01466882265234526,0.0089247404101948
206,218,0.01466882265234526,0.009010555221831288
207,219,0.01466882265234526,0.009096370033467777
192,204,0.014671558867548722,0.009182184845104266
193,205,0.014671558867548722,0.009267999656740753
194,206,0.014671558867548722,0.009353814468377242
195,207,0.014671558867548722,0.00943962928001373
196,208,0.014671558867548722,0.00952544409165022
197,209,0.014671558867548722,0.009611258903286707
198,210,0.014671558867548722,0.009697073714923196
199,211,0.014671558867548722,0.009782888526559685
200,212,0.014671558867548722,0.009868703338196172
201,213,0.014671558867548722,0.009954518149832661
149,159,0.01467309788876522,0.01004033296146915
150,160,0.01467309788876522,0.010126147773105639
151,161,0.01467309788876522,0.010211962584742126
152,162,0.01467309788876522,0.010297777396378615
153,163,0.01467309788876522,0.010383592208015104
148,158,0.01467831593676522,0.010469407019651591
147,157,0.01468353398476522,0.01055522183128808
146,156,0.01468875203276522,0.010641036642924569
145,155,0.01469397008076522,0.010726851454561058
144,154,0.01469918812876522,0.010812666266197545
222,234,0.014700380948064912,0.010898481077834034
223,235,0.014700380948064912,0.010984295889470523
142,152,0.014704406176765219,0.01107011070110701
143,153,0.014704406176765219,0.0111559255127435
224,236,0.014705598996064913,0.011241740324379988
225,237,0.014710817044064912,0.011327555136016477
220,232,0.014714910258643542,0.011413369947652964
221,233,0.014714910258643542,0.011499184759289453
186,197,0.014717327971900583,0.011584999570925942
187,198,0.014717327971900583,0.01167081438256243
188,199,0.014717327971900583,0.011756629194198918
189,200,0.014717327971900583,0.011842444005835407
190,201,0.014717327971900583,0.011928258817471896
191,202,0.014717327971900583,0.012014073629108384
214,226,0.014718165863365558,0.012099888440744873
215,227,0.014718165863365558,0.012185703252381361
216,228,0.014718165863365558,0.012271518064017849
217,229,0.014718165863365558,0.012357332875654338
218,230,0.014718165863365558,0.012443147687290827
219,231,0.014718165863365558,0.012528962498927316
62,67,0.014727794725793641,0.012614777310563803
1740,1783,0.014728647803719212,0.012700592122200292
63,68,0.014736354905982726,0.01278640693383678
141,150,0.014742023172410352,0.012872221745473268
1739,1782,0.014743133227135203,0.012958036557109757
3672,3715,0.014764005419129375,0.013043851368746246
3673,3716,0.014764005419129375,0.013129666180382735
3674,3717,0.014764005419129375,0.013215480992019222
3675,3718,0.014764005419129375,0.01330129580365571
3676,3719,0.014764005419129375,0.0133871106152922
3677,3720,0.014764005419129375,0.013472925426928687
226,238,0.014768181398288673,0.013558740238565176
235,247,0.014772720062173663,0.013644555050201665
236,248,0.014772720062173663,0.013730369861838154
237,249,0.01477304883017367,0.013816184673474641
227,239,0.014773399446288672,0.01390199948511113
228,240,0.014778617494288673,0.013987814296747619
1741,1784,0.014780794109942975,0.014073629108384108
1742,1785,0.014780794109942975,0.014159443920020595
1743,1786,0.014780794109942975,0.014245258731657084
1744,1787,0.014780794109942975,0.014331073543293573
1745,1788,0.014780794109942975,0.01441688835493006
1746,1789,0.014780794109942975,0.01450270316656655
1747,1790,0.014780794109942975,0.014588517978203038
229,241,0.014783835542288673,0.014674332789839527
230,242,0.014783835542288673,0.014760147601476014
231,243,0.014783835542288673,0.014845962413112503
232,244,0.014783835542288673,0.014931777224748992
233,245,0.014783835542288673,0.01501759203638548
234,246,0.014783835542288673,0.015103406848021968
1484,1527,0.014790683197940097,0.015189221659658457
1485,1528,0.014790683197940097,0.015275036471294946
1486,1529,0.014790683197940097,0.015360851282931434
1487,1530,0.014790683197940097,0.015446666094567922
1488,1531,0.014790683197940097,0.015532480906204411
1489,1532,0.014790683197940097,0.015618295717840899
1490,1533,0.014790683197940097,0.01570411052947739
1491,1534,0.014790683197940097,0.015789925341113877
1492,1535,0.014790683197940097,0.015875740152750364
1493,1536,0.014790683197940097,0.015961554964386854
1494,1537,0.014790683197940097,0.01604736977602334
1495,1538,0.014790683197940097,0.01613318458765983
1496,1539,0.014790683197940097,0.01621899939929632
1497,1540,0.014790683197940097,0.016304814210932807
1498,1541,0.014790683197940097,0.016390629022569294
1499,1542,0.014790683197940097,0.016476443834205785
1500,1543,0.014790683197940097,0.016562258645842272
137,145,0.014790913873912096,0.016648073457478763
138,146,0.014790913873912096,0.01673388826911525
139,147,0.014790913873912096,0.016819703080751737
140,148,0.014790913873912096,0.016905517892388228
130,138,0.014793531817115558,0.016991332704024715
131,139,0.014793531817115558,0.017077147515661202
132,140,0.014793531817115558,0.017162962327297693
133,141,0.014793531817115558,0.01724877713893418
134,142,0.014793531817115558,0.017334591950570667
135,143,0.014793531817115558,0.017420406762207158
136,144,0.014793531817115558,0.017506221573843645
64,69,0.014796299925610419,0.017592036385480132
65,70,0.014803909947445482,0.017677851197116623
1738,1781,0.014809764956774956,0.01776366600875311
66,71,0.014811634236310765,0.0178494808203896
3678,3721,0.014816151725353137,0.017935295632026088
67,72,0.014819188277511474,0.018021110443662575
3679,3722,0.014821369773353155,0.018106925255299066
3659,3702,0.014824543324769195,0.018192740066935553
3660,3703,0.014824543324769195,0.01827855487857204
3661,3704,0.014824543324769195,0.01836436969020853
3662,3705,0.014824543324769195,0.01845018450184502
3663,3706,0.014824543324769195,0.018535999313481506
3664,3707,0.014824543324769195,0.018621814125117996
3665,3708,0.014824543324769195,0.018707628936754483
3666,3709,0.014824543324769195,0.01879344374839097
3667,3710,0.014824543324769195,0.01887925856002746
3668,3711,0.014824543324769195,0.01896507337166395
3669,3712,0.014824543324769195,0.01905088818330044
3670,3713,0.014824543324769195,0.019136702994936926
3671,3714,0.014824543324769195,0.019222517806573414
238,250,0.014825195136397431,0.019308332618209904
239,251,0.014825195136397431,0.01939414742984639
240,252,0.014825195136397431,0.01947996224148288
241,253,0.014825195136397431,0.01956577705311937
242,254,0.014825195136397431,0.019651591864755857
243,255,0.014825195136397431,0.019737406676392344
3680,3723,0.014826587821353172,0.019823221488028835
68,73,0.014826684332530897,0.019909036299665322
249,262,0.01483149278626933,0.01999485111130181
250,263,0.01483149278626933,0.0200806659229383
251,264,0.01483149278626933,0.020166480734574787
1441,1484,0.014831512140188003,0.020252295546211278
3681,3724,0.01483180586935319,0.020338110357847765
1748,1791,0.014832940416166736,0.020423925169484252
1749,1792,0.014832940416166736,0.020509739981120743
1750,1793,0.014832940416166736,0.02059555479275723
1751,1794,0.014832940416166736,0.020681369604393717
1752,1795,0.014832940416166736,0.020767184416030208
1753,1796,0.014832940416166736,0.020852999227666695
1754,1797,0.014832940416166736,0.020938814039303182
1755,1798,0.014832940416166736,0.021024628850939673
69,74,0.014834169743273253,0.02111044366257616
1440,1483,0.014836730188187985,0.021196258474212647
3682,3725,0.014837023917353207,0.021282073285849138
3683,3726,0.014837023917353207,0.021367888097485625
3684,3727,0.014837023917353207,0.021453702909122116
3685,3728,0.014837023917353207,0.021539517720758603
3686,3729,0.014837023917353207,0.02162533253239509
71,76,0.014839001572077327,0.02171114734403158
70,75,0.014841645241225799,0.02179696215566807
1439,1482,0.014841948236187967,0.021882776967304556
112,118,0.014842404052135853,0.021968591778941046
113,119,0.014842404052135856,0.022054406590577533
114,120,0.014842404052135856,0.02214022140221402
1501,1544,0.014842829504163858,0.02222603621385051
1502,1545,0.014842829504163858,0.022311851025487
1503,1546,0.014842829504163858,0.02239766583712349
125,132,0.014842875028135855,0.022483480648759976
126,133,0.014842875028135855,0.022569295460396464
127,134,0.014842875028135855,0.022655110272032954
128,135,0.014842875028135855,0.02274092508366944
129,136,0.014842875028135855,0.02282673989530593
102,108,0.014844882603339313,0.02291255470694242
103,109,0.014844882603339316,0.022998369518578907
104,110,0.014844882603339316,0.023084184330215394
105,111,0.014844882603339316,0.023169999141851885
106,112,0.014844882603339316,0.023255813953488372
107,113,0.014844882603339316,0.02334162876512486
108,114,0.014844882603339316,0.02342744357676135
109,115,0.014844882603339316,0.023513258388397837
110,116,0.014844882603339316,0.023599073200034328
111,117,0.014844882603339316,0.023684888011670815
72,77,0.01484521789207733,0.023770702823307302
82,88,0.014845529579339312,0.023856517634943793
83,89,0.014845529579339312,0.02394233244658028
84,90,0.014845529579339312,0.024028147258216767
85,91,0.014845529579339312,0.024113962069853258
86,92,0.014845529579339312,0.024199776881489745
87,93,0.014845529579339312,0.024285591693126232
88,94,0.014845529579339312,0.024371406504762723
89,95,0.014845529579339312,0.02445722131639921
90,96,0.014845529579339312,0.024543036128035697
91,97,0.014845529579339312,0.024628850939672188
92,98,0.014845529579339312,0.024714665751308675
93,99,0.014845529579339312,0.024800480562945166
94,100,0.014845529579339312,0.024886295374581653
95,101,0.014845529579339312,0.02497211018621814
96,102,0.014845529579339312,0.02505792499785463
97,103,0.014845529579339312,0.025143739809491118
98,104,0.014845529579339312,0.025229554621127605
99,105,0.014845529579339312,0.025315369432764096
100,106,0.014845529579339312,0.025401184244400583
101,107,0.014845529579339312,0.02548699905603707
73,78,0.014846143700135872,0.02557281386767356
74,79,0.014847044116135875,0.02565862867931005
1438,1481,0.01484716628418795,0.025744443490946536
75,80,0.014847848788135876,0.025830258302583026
76,81,0.014848497876135878,0.025916073114219514
1454,1497,0.014851221103579846,0.026001887925856004
1455,1498,0.014851221103579846,0.02608770273749249
1456,1499,0.014851221103579846,0.02617351754912898
1457,1500,0.014851221103579846,0.02625933236076547
1458,1501,0.014851221103579846,0.026345147172401957
1459,1502,0.014851221103579846,0.026430961984038444
1460,1503,0.014851221103579846,0.026516776795674935
1469,1512,0.014851221103579846,0.02660259160731142
1470,1513,0.014851221103579846,0.02668840641894791
1471,1514,0.014851221103579846,0.0267742212305844
1472,1515,0.014851221103579846,0.026860036042220887
1473,1516,0.014851221103579846,0.026945850853857374
1474,1517,0.014851221103579846,0.027031665665493865
1475,1518,0.014851221103579846,0.027117480477130352
1476,1519,0.014851221103579846,0.027203295288766843
1477,1520,0.014851221103579846,0.02728911010040333
1478,1521,0.014851221103579846,0.027374924912039817
1479,1522,0.014851221103579846,0.027460739723676308
1480,1523,0.014851221103579846,0.027546554535312795
1481,1524,0.014851221103579846,0.027632369346949282
1482,1525,0.014851221103579846,0.027718184158585773
1483,1526,0.014851221103579846,0.02780399897022226
1437,1480,0.014852384332187931,0.027889813781858747
1419,1462,0.014857602380187913,0.027975628593495238
1420,1463,0.014857602380187913,0.028061443405131725
1421,1464,0.014857602380187913,0.028147258216768216
1422,1465,0.014857602380187913,0.028233073028404703
1423,1466,0.014857602380187913,0.02831888784004119
1424,1467,0.014857602380187913,0.02840470265167768
1425,1468,0.014857602380187913,0.028490517463314168
1426,1469,0.014857602380187913,0.028576332274950655
1427,1470,0.014857602380187913,0.028662147086587146
1428,1471,0.014857602380187913,0.028747961898223633
1429,1472,0.014857602380187913,0.02883377670986012
1430,1473,0.014857602380187913,0.02891959152149661
1431,1474,0.014857602380187913,0.0290054063331331
1432,1475,0.014857602380187913,0.029091221144769586
1433,1476,0.014857602380187913,0.029177035956406076
1434,1477,0.014857602380187913,0.029262850768042564
1435,1478,0.014857602380187913,0.029348665579679054
1436,1479,0.014857602380187913,0.02943448039131554
969,1012,0.014859359424163826,0.02952029520295203
970,1013,0.014859359424163826,0.02960611001458852
971,1014,0.014859359424163826,0.029691924826225007
972,1015,0.014859359424163826,0.029777739637861494
973,1016,0.014859359424163826,0.029863554449497984
1461,1505,0.014859612702995833,0.02994936926113447
1463,1506,0.014859612702995833,0.03003518407277096
1464,1507,0.014859612702995833,0.03012099888440745
3726,3769,0.014873361758128567,0.030206813696043937
3727,3770,0.014873361758128567,0.030292628507680424
3728,3771,0.014873361758128567,0.030378443319316915
3729,3772,0.014873361758128567,0.030464258130953402
966,1009,0.014873844847579818,0.030550072942589893
967,1010,0.014873844847579818,0.03063588775422638
968,1011,0.014873844847579818,0.030721702565862867
974,1018,0.014873844847579818,0.030807517377499358
976,1019,0.014873844847579818,0.030893332189135845
977,1020,0.014873844847579818,0.030979147000772332
994,1037,0.014873844847579818,0.031064961812408823
995,1038,0.014873844847579818,0.03115077662404531
996,1039,0.014873844847579818,0.031236591435681797
997,1040,0.014873844847579818,0.03132240624731829
998,1041,0.014873844847579818,0.03140822105895478
999,1042,0.014873844847579818,0.03149403587059126
1000,1043,0.014873844847579818,0.03157985068222775
1001,1044,0.014873844847579818,0.031665665493864244
1002,1045,0.014873844847579818,0.03175148030550073
1003,1046,0.014873844847579818,0.03183729511713722
1004,1047,0.014873844847579818,0.03192310992877371
3695,3738,0.014875013568160966,0.03200892474041019
3696,3739,0.014875013568160966,0.03209473955204668
3697,3740,0.014875013568160966,0.032180554363683174
3698,3741,0.014875013568160966,0.03226636917531966
1737,1780,0.014876396686414708,0.03235218398695615
244,256,0.014877341442621192,0.03243799879859264
245,257,0.014877341442621192,0.03252381361022912
246,258,0.014877341442621192,0.032609628421865614
247,259,0.014877341442621192,0.032695443233502104
248,260,0.014877341442621192,0.03278125804513859
1442,1485,0.014878440398411782,0.03286707285677508
360,381,0.014880643793754257,0.03295288766841157
361,382,0.014880643793754257,0.03303870248004805
272,286,0.014883570100493095,0.033124517291684544
273,287,0.014883570100493095,0.033210332103321034
274,288,0.014883570100493095,0.033296146914957525
275,289,0.014883570100493095,0.03338196172659401
276,290,0.014883570100493095,0.0334677765382305
277,291,0.014883570100493095,0.03355359134986699
278,292,0.014883570100493095,0.033639406161503474
279,293,0.014883570100493095,0.033725220973139965
280,294,0.014883570100493095,0.033811035784776455
281,295,0.014883570100493095,0.03389685059641294
282,296,0.014883570100493095,0.03398266540804943
283,297,0.014883570100493095,0.03406848021968592
252,265,0.014883639092493094,0.034154295031322404
253,266,0.014883639092493094,0.034240109842958895
254,267,0.014883639092493094,0.034325924654595386
