,Request Id,request_e2e_time_normalized,cdf
0,0,0.013081569261110274,8.581481163648846e-05
1,1,0.013218692039525061,0.00017162962327297692
2,2,0.013357165937939855,0.0002574444349094654
3,3,0.013476150756354645,0.00034325924654595385
4,5,0.013723076581407987,0.0004290740581824423
5,6,0.01384840532982278,0.0005148888698189308
6,7,0.013955320848237569,0.0006007036814554192
7,8,0.01406573228665236,0.0006865184930919077
8,9,0.014156862435067152,0.0007723333047283961
9,10,0.014287036483481943,0.0008581481163648846
10,11,0.014427173501896736,0.000943962928001373
11,12,0.014515162150311525,0.0010297777396378615
12,13,0.014585186718726318,0.00111559255127435
13,14,0.014666294087141107,0.0012014073629108384
14,15,0.014814056795555898,0.0012872221745473269
15,16,0.01495697993397069,0.0013730369861838154
16,17,0.015093871532385481,0.0014588517978203037
17,18,0.015232699010800273,0.0015446666094567922
18,19,0.015323522659215064,0.0016304814210932807
19,20,0.015429205877629854,0.0017162962327297692
20,21,0.015569521196044645,0.0018021110443662575
21,22,0.015710873384459437,0.001887925856002746
22,23,0.015845838192874228,0.0019737406676392346
23,24,0.015982457331289016,0.002059555479275723
24,26,0.0162391589841186,0.0021453702909122116
25,27,0.016316753972533387,0.0022311851025487
26,28,0.016405059320948177,0.002316999914185188
27,29,0.01655125620936297,0.0024028147258216767
28,30,0.016683852087777763,0.0024886295374581652
29,31,0.016809790106192553,0.0025744443490946537
30,32,0.016946635684607345,0.0026602591607311423
31,33,0.016969167193022133,0.0027460739723676308
32,34,0.017113176151436923,0.0028318887840041193
33,36,0.017393255449469968,0.0029177035956406074
34,37,0.017531640437884757,0.003003518407277096
35,38,0.01765889402629955,0.0030893332189135844
36,39,0.017797654414714342,0.003175148030550073
37,40,0.017938376183129132,0.0032609628421865614
38,41,0.01806080073154392,0.00334677765382305
39,42,0.018204896579958715,0.0034325924654595385
40,43,0.018333800648373505,0.003518407277096027
41,44,0.018459059846788296,0.003604222088732515
42,46,0.01868538176282134,0.0036900369003690036
43,47,0.018812443691236132,0.003775851712005492
44,48,0.018952071169650923,0.0038616665236419806
45,49,0.019148569924289476,0.003947481335278469
46,50,0.019279076972704267,0.004033296146914957
47,51,0.019423607141119056,0.004119110958551446
48,52,0.01951920799953385,0.004204925770187934
49,53,0.01965233837794864,0.004290740581824423
50,54,0.01978536491636343,0.004376555393460911
51,55,0.019959115451001982,0.0044623702050974
52,56,0.019987571829416774,0.004548185016733888
53,57,0.020023716687831566,0.004633999828370376
54,58,0.020132977586246357,0.004719814640006865
55,59,0.02027106138466115,0.004805629451643353
56,60,0.02036902380307594,0.004891444263279842
57,61,0.02048915018149073,0.0049772590749163305
58,63,0.02070615330152377,0.005063073886552819
59,64,0.02079870312993856,0.0051488886981893075
60,65,0.020938121828353355,0.005234703509825796
61,66,0.021059155606768146,0.0053205183214622845
62,67,0.021238860531406698,0.005406333133098773
63,68,0.02136432452982149,0.0054921479447352615
64,69,0.02152785071446004,0.00557796275637175
65,70,0.021627986972874835,0.005663777568008239
66,71,0.021751147541289623,0.005749592379644727
67,72,0.021770970369704417,0.005835407191281215
68,73,0.021879541268119206,0.005921222002917704
69,74,0.022005425826533996,0.006007036814554192
70,75,0.022090167754948785,0.006092851626190681
71,76,0.022238287513363576,0.006178666437827169
72,77,0.02237606919177837,0.006264481249463658
73,78,0.02250288280219316,0.006350296061100146
74,79,0.022581029352607952,0.006436110872736634
75,80,0.02269725739302274,0.006521925684373123
76,81,0.022777345443437538,0.006607740496009611
77,82,0.02294255250007609,0.0066935553076461
78,83,0.02548182405388467,0.006779370119282588
79,84,0.025619464312299462,0.006865184930919077
81,86,0.025758078959129044,0.006950999742555565
80,85,0.025760181270714253,0.007036814554192054
82,88,0.026051558699162092,0.007122629365828542
83,89,0.02619608493757688,0.00720844417746503
84,90,0.02632225549599167,0.007294258989101519
85,91,0.026399360444406463,0.007380073800738007
86,92,0.026540935642821256,0.007465888612374496
87,93,0.026642382891236046,0.007551703424010984
88,94,0.026743915169650835,0.007637518235647473
89,95,0.02686379924806563,0.007723333047283961
90,96,0.02699134935648042,0.007809147858920449
91,97,0.02711837391489521,0.007894962670556938
92,98,0.02725355359331,0.007980777482193427
95,101,0.027371021208554374,0.008066592293829914
93,99,0.027401508071724794,0.008152407105466403
94,100,0.027451568670139582,0.008238221917102892
96,102,0.027489206666969163,0.008324036728739381
97,103,0.027623402515383956,0.008409851540375868
98,104,0.02768056787379875,0.008495666352012357
99,105,0.02774390912221354,0.008581481163648846
100,106,0.02789010627062833,0.008667295975285334
101,107,0.02792018567904312,0.008753110786921823
102,108,0.02803844271745791,0.008838925598558312
103,109,0.028170482765872702,0.0089247404101948
104,110,0.028308713054287494,0.009010555221831288
105,111,0.028426833092702285,0.009096370033467777
106,112,0.02852231216111708,0.009182184845104266
107,113,0.028619767879531865,0.009267999656740753
108,114,0.028747783007946656,0.009353814468377242
109,115,0.02885446848636145,0.00943962928001373
110,116,0.02894619570477624,0.00952544409165022
111,117,0.029080411723191032,0.009611258903286707
112,118,0.02918987659160582,0.009697073714923196
113,119,0.02932545864002061,0.009782888526559685
114,120,0.029413906488435403,0.009868703338196172
115,121,0.02961182279307396,0.009954518149832661
116,122,0.029753799051488748,0.01004033296146915
117,123,0.02987379867990354,0.010126147773105639
118,124,0.029976563578318332,0.010211962584742126
119,125,0.03012042237673312,0.010297777396378615
120,126,0.030156096455147913,0.010383592208015104
121,127,0.030288854853562707,0.010469407019651591
122,128,0.030423285531977495,0.01055522183128808
123,129,0.030551047430392286,0.010641036642924569
124,130,0.030672092718807078,0.010726851454561058
125,132,0.03095281966084012,0.010812666266197545
126,133,0.031088577919254914,0.010898481077834034
127,134,0.031236083607669704,0.010984295889470523
128,135,0.0312572898760845,0.01107011070110701
129,136,0.03140377892449928,0.0111559255127435
130,138,0.03162201227653233,0.011241740324379988
131,139,0.03176187340494712,0.011327555136016477
133,141,0.031865723101776704,0.011413369947652964
132,140,0.03189880308336191,0.011499184759289453
134,142,0.031968682980191496,0.011584999570925942
135,143,0.03211296312860629,0.01167081438256243
136,144,0.03225993674702108,0.011756629194198918
137,145,0.03233100087543587,0.011842444005835407
138,146,0.03245571444385066,0.011928258817471896
139,147,0.03256554989226545,0.012014073629108384
140,148,0.032672964240680245,0.012099888440744873
141,150,0.032923556502231846,0.012185703252381361
142,152,0.033221066769640054,0.012271518064017849
143,153,0.03336232057805484,0.012357332875654338
144,154,0.03348201381846963,0.012443147687290827
145,155,0.033584575068884424,0.012528962498927316
146,156,0.033702518349299215,0.012614777310563803
147,157,0.03383419315971401,0.012700592122200292
148,158,0.033955418370128804,0.01278640693383678
149,159,0.03404869378054359,0.012872221745473268
150,160,0.03418588858095838,0.012958036557109757
151,161,0.03430855852137318,0.013043851368746246
152,162,0.034359861611787966,0.013129666180382735
153,163,0.03448779345220276,0.013215480992019222
154,165,0.03471551892314735,0.01330129580365571
155,166,0.037265038154955986,0.0133871106152922
156,167,0.03740657599337077,0.013472925426928687
157,168,0.03750713176178557,0.013558740238565176
158,169,0.03758266781020036,0.013644555050201665
159,170,0.03768942631861515,0.013730369861838154
160,171,0.037832582017029937,0.013816184673474641
161,172,0.03793423753544473,0.01390199948511113
162,173,0.03801321370385952,0.013987814296747619
163,174,0.03815792721227432,0.014073629108384108
164,175,0.038294125650689105,0.014159443920020595
165,176,0.0384069977791039,0.014245258731657084
166,177,0.038525843517518685,0.014331073543293573
167,178,0.03859312496593348,0.01441688835493006
168,179,0.03874900927057203,0.01450270316656655
169,180,0.03886013159898682,0.014588517978203038
170,181,0.039004702847401616,0.014674332789839527
171,182,0.039121518615816406,0.014760147601476014
172,183,0.039263342794231194,0.014845962413112503
173,184,0.03935051560264599,0.014931777224748992
174,185,0.03948640282106078,0.01501759203638548
175,186,0.03962107642947557,0.015103406848021968
176,187,0.03976140406789036,0.015189221659658457
177,188,0.03988667357630515,0.015275036471294946
178,189,0.040009069644719945,0.015360851282931434
179,190,0.040131278493134734,0.015446666094567922
180,191,0.04027422141154952,0.015532480906204411
181,192,0.04039464373996432,0.015618295717840899
182,193,0.0405408055183791,0.01570411052947739
183,194,0.0405448098067939,0.015789925341113877
184,195,0.04058355031520869,0.015875740152750364
185,196,0.04072353565362348,0.015961554964386854
186,197,0.04091689916826203,0.01604736977602334
187,198,0.04102994206667683,0.01613318458765983
188,199,0.041177996755091616,0.01621899939929632
189,200,0.04127655563350641,0.016304814210932807
190,201,0.0413900740219212,0.016390629022569294
191,202,0.04151009670033599,0.016476443834205785
192,204,0.04177385030903747,0.016562258645842272
193,205,0.04187651926745226,0.016648073457478763
194,206,0.04199920421586706,0.01673388826911525
195,207,0.04211215612428184,0.016819703080751737
196,208,0.04223308692269663,0.016905517892388228
197,209,0.042242999741111426,0.016991332704024715
198,210,0.04225410584952621,0.017077147515661202
199,211,0.042383038557941004,0.017162962327297693
200,212,0.0424986476963558,0.01724877713893418
201,213,0.04264059185477059,0.017334591950570667
202,214,0.042743110783185385,0.017420406762207158
203,215,0.04281338444160017,0.017506221573843645
204,216,0.04295341207001496,0.017592036385480132
205,217,0.04309361106842975,0.017677851197116623
206,218,0.04323043469684454,0.01776366600875311
207,219,0.04336492986525933,0.0178494808203896
208,220,0.04350293973367413,0.017935295632026088
209,221,0.043644786212088914,0.018021110443662575
210,222,0.04377655989050371,0.018106925255299066
211,223,0.0439191809389185,0.018192740066935553
637,465,0.044000508694543236,0.01827855487857204
212,224,0.04405882716733329,0.01836436969020853
635,433,0.04420623497519173,0.01845018450184502
213,225,0.04420716409574808,0.018535999313481506
644,469,0.04434419653072433,0.018621814125117996
633,416,0.044382445219173554,0.018707628936754483
214,226,0.04438888166038663,0.01879344374839097
631,398,0.04450108910982205,0.01887925856002746
646,470,0.044505240085685696,0.01896507337166395
215,227,0.04451650885880142,0.01905088818330044
627,380,0.044520028047785695,0.019136702994936926
216,228,0.04455467434721622,0.019222517806573414
629,383,0.044567236820470535,0.019308332618209904
648,472,0.04456905569503721,0.01939414742984639
625,361,0.04463249636176752,0.01947996224148288
623,347,0.04463879793241601,0.01956577705311937
620,332,0.04466028653037966,0.019651591864755857
217,229,0.04466640590563101,0.019737406676392344
621,338,0.04468857281306451,0.019823221488028835
618,320,0.04474297846436148,0.019909036299665322
616,308,0.04478607740500998,0.01999485111130181
218,230,0.0448138216440458,0.0200806659229383
219,231,0.044932444702460585,0.020166480734574787
655,473,0.04498518541735656,0.020252295546211278
657,478,0.04501936649670807,0.020338110357847765
614,279,0.045027832885658474,0.020423925169484252
220,232,0.04507557807087539,0.020509739981120743
221,233,0.045171784869290174,0.02059555479275723
612,261,0.04521553266297362,0.020681369604393717
661,480,0.045246079725945965,0.020767184416030208
663,496,0.04527561728198231,0.020852999227666695
222,234,0.045299329307704965,0.020938814039303182
662,481,0.04530454379729747,0.021024628850939673
664,497,0.04534406138000049,0.02111044366257616
666,499,0.045408977508018665,0.021196258474212647
223,235,0.04542148119611975,0.021282073285849138
224,236,0.045515761634534545,0.021367888097485625
668,500,0.04554534599091635,0.021453702909122116
670,504,0.04560382994840612,0.021539517720758603
225,237,0.045638896032949336,0.02162533253239509
610,203,0.04574803061028879,0.02171114734403158
226,238,0.045837456257587894,0.02179696215566807
675,509,0.045863739006385275,0.021882776967304556
227,239,0.045937713186002684,0.021968591778941046
678,515,0.04597457849667997,0.022054406590577533
228,240,0.04607113969441747,0.02214022140221402
608,164,0.04609772565427061,0.02222603621385051
605,149,0.046100686728035065,0.022311851025487
607,151,0.04615201160158577,0.02239766583712349
229,241,0.04619694366283226,0.022483480648759976
604,137,0.04621227403448436,0.022569295460396464
603,131,0.04622675684426699,0.022655110272032954
684,521,0.04626155453557331,0.02274092508366944
230,242,0.046309620633247055,0.02282673989530593
231,243,0.04643394150366184,0.02291255470694242
690,528,0.046479750026357396,0.022998369518578907
232,244,0.046534612824076636,0.023084184330215394
233,245,0.046602659934491426,0.023169999141851885
602,87,0.04672781888071629,0.023255813953488372
234,246,0.04674327422490622,0.02334162876512486
235,247,0.04688034962532101,0.02342744357676135
236,248,0.046989021485735805,0.023513258388397837
601,62,0.04700469681049892,0.023599073200034328
701,529,0.047047116377832786,0.023684888011670815
599,35,0.047140956496730835,0.023770702823307302
600,45,0.04714272503361488,0.023856517634943793
598,25,0.04720095510318013,0.02394233244658028
597,4,0.047365757762962764,0.024028147258216767
237,249,0.04949783608354444,0.024113962069853258
238,250,0.049662257998183,0.024199776881489745
239,251,0.04975378003659779,0.024285591693126232
240,252,0.049888352915012577,0.024371406504762723
241,253,0.04996330779342737,0.02445722131639921
242,254,0.05007571982184216,0.024543036128035697
243,255,0.05021541163025695,0.024628850939672188
750,532,0.05033569391650903,0.024714665751308675
244,256,0.05037554452489551,0.024800480562945166
245,257,0.050512352293310296,0.024886295374581653
246,258,0.050626596661725094,0.02497211018621814
247,259,0.05075465627013988,0.02505792499785463
248,260,0.05088001759855467,0.025143739809491118
249,262,0.05116198921525616,0.025229554621127605
250,263,0.05127931388367094,0.025315369432764096
251,264,0.05128690150208573,0.025401184244400583
252,265,0.05147075491672429,0.02548699905603707
254,267,0.051582965103553875,0.02557281386767356
253,266,0.051600551395139076,0.02565862867931005
255,268,0.05171445154196866,0.025744443490946536
256,269,0.051837825080383454,0.025830258302583026
257,270,0.05190784976879824,0.025916073114219514
258,271,0.05199291307721303,0.026001887925856004
259,272,0.052106893665627825,0.02608770273749249
260,273,0.052229681194042615,0.02617351754912898
261,274,0.052341538722457406,0.02625933236076547
262,275,0.0524827039908722,0.026345147172401957
263,276,0.05262158621928699,0.026430961984038444
264,277,0.05273557278770178,0.026516776795674935
265,278,0.052866441946116574,0.02660259160731142
266,280,0.053139944409041816,0.02668840641894791
267,281,0.05326485279745661,0.0267742212305844
268,282,0.0533662935058714,0.026860036042220887
269,283,0.05346746086428619,0.026945850853857374
270,284,0.05357094291270099,0.027031665665493865
271,285,0.053628335261115774,0.027117480477130352
272,286,0.053764412139530565,0.027203295288766843
273,287,0.05389255513794536,0.02728911010040333
274,288,0.05400317456636015,0.027374924912039817
275,289,0.054046840824774935,0.027460739723676308
276,290,0.05408103278318973,0.027546554535312795
277,291,0.05422670417160452,0.027632369346949282
278,292,0.054339406640019315,0.027718184158585773
279,293,0.0544618383484341,0.02780399897022226
280,294,0.0546096624068489,0.027889813781858747
281,295,0.05473564243526369,0.027975628593495238
282,296,0.05487532236367848,0.028061443405131725
283,297,0.055018814572093275,0.028147258216768216
284,298,0.055208410106731824,0.028233073028404703
285,299,0.05534746419514661,0.02831888784004119
286,300,0.055490991003561405,0.02840470265167768
287,301,0.05568324747819996,0.028490517463314168
288,302,0.05580877048661474,0.028576332274950655
289,303,0.05592842439502954,0.028662147086587146
290,304,0.05605220146344433,0.028747961898223633
291,305,0.05618808723185911,0.02883377670986012
292,306,0.05629183742027391,0.02891959152149661
293,307,0.056414221448688705,0.0290054063331331
294,309,0.05662179095570723,0.029091221144769586
295,310,0.056742719004122026,0.029177035956406076
296,311,0.05688488873253681,0.029262850768042564
297,312,0.0569568488509516,0.029348665579679054
298,313,0.05703714561936639,0.02943448039131554
299,314,0.05715284937778119,0.02952029520295203
300,315,0.05727278025619597,0.02960611001458852
301,316,0.05746511252083453,0.029691924826225007
302,317,0.057601540769249324,0.029777739637861494
303,318,0.057724762017664105,0.029863554449497984
304,319,0.0578594517060789,0.02994936926113447
305,321,0.05812949327478039,0.03003518407277096
306,322,0.058275992423195186,0.03012099888440745
307,323,0.058359977721609974,0.030206813696043937
308,324,0.05844171992002476,0.030292628507680424
309,325,0.05846732169843955,0.030378443319316915
310,326,0.05859755761685435,0.030464258130953402
311,327,0.05872619612526913,0.030550072942589893
312,328,0.05886559725368393,0.03063588775422638
313,329,0.05898929285209872,0.030721702565862867
314,330,0.05906002553051351,0.030807517377499358
315,331,0.0592073998789283,0.030893332189135845
870,535,0.06111232655257287,0.030979147000772332
884,592,0.0611217997747001,0.031064961812408823
872,542,0.06113344905859105,0.03115077662404531
878,567,0.061158026726645574,0.031236591435681797
874,550,0.06116701876127589,0.03132240624731829
882,580,0.061170669388681924,0.03140822105895478
876,560,0.061185939787294065,0.03149403587059126
880,570,0.061214494682663746,0.03157985068222775
887,593,0.06128578114632813,0.031665665493864244
316,333,0.06189879300308691,0.03175148030550073
317,334,0.06209581045772547,0.03183729511713722
318,335,0.06223902826614026,0.03192310992877371
319,336,0.062367036554555055,0.03200892474041019
320,337,0.062450357162969844,0.03209473955204668
912,595,0.06257905366381365,0.032180554363683174
321,339,0.06271881008239434,0.03226636917531966
322,340,0.06285313113080913,0.03235218398695615
323,341,0.06297278365922393,0.03243799879859264
324,342,0.06307320354763872,0.03252381361022912
325,343,0.06313774697605351,0.032609628421865614
326,344,0.06323866138446829,0.032695443233502104
327,345,0.0633409417328831,0.03278125804513859
328,346,0.06343519576129789,0.03286707285677508
329,348,0.06371688610836479,0.03295288766841157
330,349,0.06384389988677958,0.03303870248004805
331,350,0.06398698145519437,0.033124517291684544
332,351,0.06413000876983292,0.033210332103321034
333,352,0.06427619025824771,0.033296146914957525
334,353,0.0644167186666625,0.03338196172659401
335,354,0.06454816653507729,0.0334677765382305
336,355,0.06469133597349208,0.03355359134986699
337,356,0.06482992008190687,0.033639406161503474
338,357,0.06496060578032167,0.033725220973139965
339,358,0.06507979190873646,0.033811035784776455
340,359,0.06522013095715125,0.03389685059641294
341,360,0.06533247052556604,0.03398266540804943
342,362,0.06561154397776625,0.03406848021968592
343,363,0.06575779297618105,0.034154295031322404
344,364,0.06587756768459584,0.034240109842958895
345,365,0.06594650405301063,0.034325924654595386
346,366,0.06609034153142541,0.03441173946623187
347,367,0.0662111444398402,0.03449755427786836
348,368,0.066348756348255,0.03458336908950485
349,369,0.06645167663666979,0.034669183901141334
975,599,0.0665296985510922,0.034754998712777825
350,370,0.06659884887508458,0.034840813524414316
351,371,0.06669596277349937,0.0349266283360508
352,372,0.06680247414191416,0.03501244314768729
353,373,0.06690555698032895,0.03509825795932378
354,374,0.06704510943874376,0.035184072770960265
