,Request Id,decode_time_execution_plus_preemption_normalized,cdf
124,324,0.08972213614004641,8.134710811030668e-05
125,325,0.08972213614004641,0.00016269421622061337
126,326,0.08972213614004641,0.00024404132433092005
127,328,0.08972213614004641,0.00032538843244122673
128,332,0.08972213614004641,0.0004067355405515334
129,333,0.08972213614004641,0.0004880826486618401
130,335,0.08972213614004641,0.0005694297567721468
131,336,0.08972213614004641,0.0006507768648824535
132,337,0.08972213614004641,0.0007321239729927601
133,338,0.08972213614004641,0.0008134710811030668
134,339,0.08972213614004641,0.0008948181892133735
135,340,0.08972213614004641,0.0009761652973236802
136,341,0.08972213614004641,0.0010575124054339868
137,343,0.09053506561261376,0.0011388595135442936
138,344,0.09053506561261376,0.0012202066216546001
139,346,0.09053506561261376,0.001301553729764907
140,347,0.09053506561261376,0.0013829008378752135
141,349,0.09053506561261376,0.0014642479459855203
142,351,0.09053506561261376,0.0015455950540958269
143,352,0.09053506561261376,0.0016269421622061337
144,354,0.09053506561261376,0.0017082892703164402
145,355,0.09053506561261376,0.001789636378426747
146,357,0.09053506561261376,0.0018709834865370536
147,359,0.09053506561261376,0.0019523305946473604
148,360,0.09053506561261376,0.002033677702757667
149,361,0.09134432559927017,0.0021150248108679735
150,363,0.09134432559927017,0.00219637191897828
151,364,0.09134432559927017,0.002277719027088587
152,365,0.09134432559927017,0.0023590661351988937
153,366,0.09134432559927017,0.0024404132433092003
154,367,0.09134432559927017,0.002521760351419507
155,368,0.09134432559927017,0.002603107459529814
156,369,0.09134432559927017,0.0026844545676401204
157,370,0.09134432559927017,0.002765801675750427
158,371,0.09134432559927017,0.0028471487838607336
159,372,0.09134432559927017,0.0029284958919710406
160,374,0.09134432559927017,0.003009843000081347
161,375,0.09134432559927017,0.0030911901081916537
162,376,0.09134432559927017,0.0031725372163019603
163,377,0.09134432559927017,0.0032538843244122673
164,378,0.09134432559927017,0.003335231432522574
165,379,0.09134432559927017,0.0034165785406328805
166,381,0.09210955095279559,0.003497925648743187
167,383,0.09210955095279559,0.003579272756853494
168,384,0.09210955095279559,0.0036606198649638006
169,385,0.09210955095279559,0.003741966973074107
170,386,0.09210955095279559,0.0038233140811844138
171,387,0.09210955095279559,0.0039046611892947208
172,389,0.09210955095279559,0.003986008297405027
173,390,0.09210955095279559,0.004067355405515334
174,391,0.09210955095279559,0.004148702513625641
175,392,0.09210955095279559,0.004230049621735947
176,393,0.09210955095279559,0.004311396729846254
177,394,0.09210955095279559,0.00439274383795656
178,395,0.09210955095279559,0.004474090946066867
179,396,0.09210955095279559,0.004555438054177174
180,397,0.09210955095279559,0.00463678516228748
181,398,0.09210955095279559,0.004718132270397787
119,304,0.09265951281585999,0.004799479378508094
120,306,0.09265951281585999,0.0048808264866184005
121,307,0.09265951281585999,0.0049621735947287075
122,314,0.09265951281585999,0.005043520702839014
123,321,0.09265951281585999,0.005124867810949321
182,399,0.09288467900910363,0.005206214919059628
183,400,0.09288467900910363,0.005287562027169934
184,401,0.09288467900910363,0.005368909135280241
185,402,0.09288467900910363,0.005450256243390548
186,403,0.09288467900910363,0.005531603351500854
187,404,0.09288467900910363,0.005612950459611161
188,405,0.09288467900910363,0.005694297567721467
189,406,0.09288467900910363,0.005775644675831774
190,407,0.09288467900910363,0.005856991783942081
191,408,0.09288467900910363,0.005938338892052387
192,409,0.09288467900910363,0.006019686000162694
193,410,0.09288467900910363,0.006101033108273001
194,411,0.09288467900910363,0.0061823802163833074
195,414,0.09288467900910363,0.0062637273244936145
196,415,0.09288467900910363,0.006345074432603921
197,417,0.09288467900910363,0.006426421540714228
198,418,0.0936121670413354,0.006507768648824535
199,421,0.0936121670413354,0.006589115756934841
200,422,0.0936121670413354,0.006670462865045148
201,423,0.0936121670413354,0.006751809973155454
202,424,0.0936121670413354,0.006833157081265761
203,425,0.0936121670413354,0.006914504189376068
204,426,0.0936121670413354,0.006995851297486374
205,427,0.0936121670413354,0.007077198405596681
206,428,0.0936121670413354,0.007158545513706988
207,429,0.0936121670413354,0.007239892621817294
208,430,0.0936121670413354,0.007321239729927601
209,431,0.0936121670413354,0.007402586838037907
210,432,0.0936121670413354,0.007483933946148214
211,433,0.0936121670413354,0.007565281054258521
212,435,0.0936121670413354,0.0076466281623688275
213,436,0.0936121670413354,0.0077279752704791345
214,437,0.09436492149330614,0.0078093223785894415
215,438,0.09436492149330614,0.007890669486699748
216,439,0.09436492149330614,0.007972016594810054
217,440,0.09436492149330614,0.008053363702920362
218,441,0.09436492149330614,0.008134710811030668
219,442,0.09436492149330614,0.008216057919140974
220,443,0.09436492149330614,0.008297405027251282
221,444,0.09436492149330614,0.008378752135361588
222,447,0.09436492149330614,0.008460099243471894
223,449,0.09436492149330614,0.008541446351582202
224,450,0.09436492149330614,0.008622793459692508
225,451,0.09436492149330614,0.008704140567802814
226,452,0.09436492149330614,0.00878548767591312
227,453,0.09436492149330614,0.008866834784023428
228,454,0.09436492149330614,0.008948181892133734
229,455,0.09436492149330614,0.00902952900024404
103,285,0.09478845278035544,0.009110876108354348
104,286,0.09478845278035544,0.009192223216464655
105,287,0.09478845278035544,0.00927357032457496
106,288,0.09478845278035544,0.009354917432685269
107,289,0.09478845278035544,0.009436264540795575
108,290,0.09478845278035544,0.009517611648905881
109,292,0.09478845278035544,0.009598958757016189
110,293,0.09478845278035544,0.009680305865126495
111,295,0.09478845278035544,0.009761652973236801
112,296,0.09478845278035544,0.009843000081347109
113,297,0.09478845278035544,0.009924347189457415
114,298,0.09478845278035544,0.010005694297567721
115,299,0.09478845278035544,0.010087041405678027
116,300,0.09478845278035544,0.010168388513788335
117,302,0.09478845278035544,0.010249735621898641
118,303,0.09478845278035544,0.010331082730008948
230,456,0.09508138425166918,0.010412429838119255
231,457,0.09508138425166918,0.010493776946229562
232,458,0.09508138425166918,0.010575124054339868
233,461,0.09508138425166918,0.010656471162450176
234,462,0.09508138425166918,0.010737818270560482
235,463,0.09508138425166918,0.010819165378670788
236,465,0.09508138425166918,0.010900512486781096
237,466,0.09508138425166918,0.010981859594891402
238,467,0.09508138425166918,0.011063206703001708
239,468,0.09508138425166918,0.011144553811112014
240,469,0.09508138425166918,0.011225900919222322
241,470,0.09508138425166918,0.011307248027332628
242,471,0.09508138425166918,0.011388595135442934
243,472,0.09508138425166918,0.011469942243553242
244,473,0.09508138425166918,0.011551289351663548
245,474,0.0957617675610589,0.011632636459773854
246,475,0.0957617675610589,0.011713983567884162
247,476,0.0957617675610589,0.011795330675994468
248,478,0.0957617675610589,0.011876677784104775
249,479,0.0957617675610589,0.011958024892215082
250,480,0.0957617675610589,0.012039372000325389
251,481,0.0957617675610589,0.012120719108435695
252,483,0.0957617675610589,0.012202066216546003
253,484,0.0957617675610589,0.012283413324656309
254,485,0.0957617675610589,0.012364760432766615
255,487,0.0957617675610589,0.012446107540876921
256,492,0.0957617675610589,0.012527454648987229
257,493,0.09640679444116415,0.012608801757097535
258,494,0.09640679444116415,0.012690148865207841
259,495,0.09640679444116415,0.012771495973318149
260,496,0.09640679444116415,0.012852843081428455
261,497,0.09640679444116415,0.012934190189538761
262,498,0.09640679444116415,0.01301553729764907
263,499,0.09640679444116415,0.013096884405759375
264,500,0.09640679444116415,0.013178231513869682
265,501,0.09640679444116415,0.01325957862197999
266,503,0.09640679444116415,0.013340925730090296
267,504,0.09640679444116415,0.013422272838200602
268,505,0.09640679444116415,0.013503619946310908
269,506,0.09640679444116415,0.013584967054421216
270,507,0.09640679444116415,0.013666314162531522
271,509,0.09640679444116415,0.013747661270641828
272,510,0.09640679444116415,0.013829008378752136
273,511,0.09640679444116415,0.013910355486862442
274,512,0.09701627991248378,0.013991702594972748
275,513,0.09701627991248378,0.014073049703083056
276,514,0.09701627991248378,0.014154396811193362
277,515,0.09701627991248378,0.014235743919303668
278,516,0.09701627991248378,0.014317091027413976
279,517,0.09701627991248378,0.014398438135524282
280,518,0.09701627991248378,0.014479785243634588
281,519,0.09701627991248378,0.014561132351744896
282,520,0.09701627991248378,0.014642479459855202
283,521,0.09701627991248378,0.014723826567965509
284,522,0.09701627991248378,0.014805173676075815
285,523,0.09701627991248378,0.014886520784186123
286,524,0.09701627991248378,0.014967867892296429
287,525,0.09701627991248378,0.015049215000406735
288,526,0.09701627991248378,0.015130562108517043
289,527,0.09701627991248378,0.015211909216627349
290,528,0.09701627991248378,0.015293256324737655
291,529,0.09701627991248378,0.015374603432847963
292,530,0.09701627991248378,0.015455950540958269
1115,1517,0.097479462525988,0.015537297649068575
1116,1518,0.097479462525988,0.015618644757178883
1117,1519,0.097479462525988,0.015699991865289187
1118,1520,0.097479462525988,0.015781338973399495
1119,1521,0.097479462525988,0.015862686081509803
1120,1522,0.097479462525988,0.015944033189620108
1121,1523,0.097479462525988,0.016025380297730416
1122,1524,0.097479462525988,0.016106727405840723
1123,1525,0.097479462525988,0.016188074513951028
1124,1527,0.097479462525988,0.016269421622061336
1125,1528,0.097479462525988,0.016350768730171644
1126,1529,0.097479462525988,0.016432115838281948
1127,1530,0.097479462525988,0.016513462946392256
1128,1531,0.097479462525988,0.016594810054502564
1129,1532,0.097479462525988,0.016676157162612868
1130,1533,0.097479462525988,0.016757504270723176
1131,1534,0.097479462525988,0.016838851378833484
1132,1535,0.097479462525988,0.016920198486943788
1133,1536,0.097479462525988,0.017001545595054096
1134,1538,0.097479462525988,0.017082892703164404
1135,1539,0.097479462525988,0.01716423981127471
1136,1540,0.097479462525988,0.017245586919385016
1137,1541,0.097479462525988,0.017326934027495324
1138,1542,0.097479462525988,0.01740828113560563
1139,1543,0.097479462525988,0.017489628243715936
1140,1544,0.097479462525988,0.01757097535182624
1141,1545,0.097479462525988,0.01765232245993655
1142,1546,0.097479462525988,0.017733669568046857
1143,1547,0.097479462525988,0.01781501667615716
1144,1548,0.097479462525988,0.01789636378426747
1145,1549,0.097479462525988,0.017977710892377777
1146,1550,0.097479462525988,0.01805905800048808
1147,1551,0.097479462525988,0.01814040510859839
1148,1552,0.097479462525988,0.018221752216708697
1149,1553,0.097479462525988,0.018303099324819
1150,1554,0.097479462525988,0.01838444643292931
922,1290,0.09748631847035512,0.018465793541039617
923,1292,0.09748631847035512,0.01854714064914992
924,1294,0.09748631847035512,0.01862848775726023
925,1295,0.09748631847035512,0.018709834865370537
926,1296,0.09748631847035512,0.01879118197348084
927,1298,0.09748631847035512,0.01887252908159115
928,1299,0.09748631847035512,0.018953876189701457
929,1300,0.09748631847035512,0.019035223297811762
930,1301,0.09748631847035512,0.01911657040592207
931,1302,0.09748631847035512,0.019197917514032378
932,1303,0.09748631847035512,0.019279264622142682
933,1304,0.09748631847035512,0.01936061173025299
934,1305,0.09748631847035512,0.019441958838363298
935,1307,0.09748631847035512,0.019523305946473602
936,1308,0.09748631847035512,0.01960465305458391
293,531,0.0976361716594816,0.019686000162694218
294,532,0.0976361716594816,0.019767347270804522
295,533,0.0976361716594816,0.01984869437891483
296,534,0.0976361716594816,0.019930041487025135
297,535,0.0976361716594816,0.020011388595135442
298,536,0.0976361716594816,0.02009273570324575
299,537,0.0976361716594816,0.020174082811356055
300,538,0.0976361716594816,0.020255429919466363
301,539,0.0976361716594816,0.02033677702757667
302,540,0.0976361716594816,0.020418124135686975
303,541,0.0976361716594816,0.020499471243797283
304,542,0.0976361716594816,0.02058081835190759
305,543,0.0976361716594816,0.020662165460017895
306,545,0.0976361716594816,0.020743512568128203
307,546,0.0976361716594816,0.02082485967623851
308,548,0.0976361716594816,0.020906206784348815
309,549,0.0976361716594816,0.020987553892459123
937,1309,0.09766653729067443,0.02106890100056943
938,1310,0.09766653729067443,0.021150248108679735
939,1312,0.09766653729067443,0.021231595216790043
940,1313,0.09766653729067443,0.02131294232490035
941,1314,0.09766653729067443,0.021394289433010655
942,1315,0.09766653729067443,0.021475636541120963
943,1318,0.09766653729067443,0.02155698364923127
944,1321,0.09766653729067443,0.021638330757341576
945,1322,0.09766653729067443,0.021719677865451884
946,1323,0.09766653729067443,0.02180102497356219
947,1324,0.09766653729067443,0.021882372081672496
948,1325,0.09766653729067443,0.021963719189782804
1169,1574,0.09767022418283404,0.02204506629789311
1170,1575,0.09767022418283404,0.022126413406003416
1171,1577,0.09767022418283404,0.022207760514113724
1172,1578,0.09767022418283404,0.022289107622224028
1173,1579,0.09767022418283404,0.022370454730334336
1174,1580,0.09767022418283404,0.022451801838444644
1175,1581,0.09767022418283404,0.02253314894655495
1176,1582,0.09767022418283404,0.022614496054665256
1177,1584,0.09767022418283404,0.022695843162775564
1178,1585,0.09767022418283404,0.02277719027088587
1179,1586,0.09767022418283404,0.022858537378996176
1180,1587,0.09767022418283404,0.022939884487106484
1181,1588,0.09767022418283404,0.02302123159521679
1182,1590,0.09767022418283404,0.023102578703327097
1183,1591,0.09767022418283404,0.023183925811437404
966,1348,0.09786027458995754,0.02326527291954771
967,1349,0.09786027458995754,0.023346620027658017
968,1351,0.09786027458995754,0.023427967135768325
969,1352,0.09786027458995754,0.02350931424387863
970,1353,0.09786027458995754,0.023590661351988937
971,1357,0.09786027458995754,0.023672008460099245
972,1358,0.09786027458995754,0.02375335556820955
973,1359,0.09786027458995754,0.023834702676319857
974,1361,0.09786027458995754,0.023916049784430165
975,1362,0.09786027458995754,0.02399739689254047
976,1364,0.09786027458995754,0.024078744000650777
977,1365,0.09786027458995754,0.024160091108761085
310,550,0.09813559448915019,0.02424143821687139
311,551,0.09813559448915019,0.024322785324981697
312,552,0.09813559448915019,0.024404132433092005
313,554,0.09813559448915019,0.02448547954120231
314,556,0.09813559448915019,0.024566826649312618
315,557,0.09813559448915019,0.024648173757422922
316,558,0.09813559448915019,0.02472952086553323
317,559,0.09813559448915019,0.024810867973643538
318,560,0.09813559448915019,0.024892215081753842
319,561,0.09813559448915019,0.02497356218986415
320,562,0.09813559448915019,0.025054909297974458
321,563,0.09813559448915019,0.025136256406084762
322,564,0.09813559448915019,0.02521760351419507
323,565,0.09813559448915019,0.025298950622305378
324,566,0.09813559448915019,0.025380297730415682
325,567,0.09813559448915019,0.02546164483852599
326,568,0.09813559448915019,0.025542991946636298
1032,1422,0.09828511192826113,0.025624339054746603
1033,1423,0.09828511192826113,0.02570568616285691
1034,1425,0.09828511192826113,0.02578703327096722
1035,1428,0.09828511192826113,0.025868380379077523
1036,1429,0.09828511192826113,0.02594972748718783
1037,1430,0.09828511192826113,0.02603107459529814
1038,1431,0.09828511192826113,0.026112421703408443
1039,1433,0.09828511192826113,0.02619376881151875
1040,1434,0.09828511192826113,0.02627511591962906
1041,1435,0.09828511192826113,0.026356463027739363
1042,1436,0.09828511192826113,0.02643781013584967
1043,1437,0.09828511192826113,0.02651915724395998
1044,1438,0.09828511192826113,0.026600504352070283
1045,1440,0.09828511192826113,0.02668185146018059
1046,1441,0.09844670909413146,0.0267631985682909
1047,1442,0.09844670909413146,0.026844545676401203
1048,1443,0.09844670909413146,0.02692589278451151
1049,1444,0.09844670909413146,0.027007239892621816
1050,1445,0.09844670909413146,0.027088587000732123
1051,1446,0.09844670909413146,0.02716993410884243
1052,1447,0.09844670909413146,0.027251281216952736
1053,1450,0.09844670909413146,0.027332628325063044
1054,1451,0.09844670909413146,0.02741397543317335
1055,1452,0.09844670909413146,0.027495322541283656
1056,1453,0.09844670909413146,0.027576669649393964
1057,1455,0.09844670909413146,0.02765801675750427
1058,1456,0.09844670909413146,0.027739363865614576
1059,1457,0.09844670909413146,0.027820710973724884
1060,1459,0.09844670909413146,0.027902058081835192
1063,1460,0.09844670909413146,0.027983405189945496
1064,1461,0.09844670909413146,0.028064752298055804
1065,1462,0.09844670909413146,0.028146099406166112
1066,1465,0.09844670909413146,0.028227446514276416
1067,1466,0.09844670909413146,0.028308793622386724
1068,1468,0.09844670909413146,0.028390140730497032
1069,1469,0.09844670909413146,0.028471487838607337
1070,1471,0.09844670909413146,0.028552834946717644
1071,1472,0.09844670909413146,0.028634182054827952
1072,1473,0.09844670909413146,0.028715529162938257
1073,1474,0.09844670909413146,0.028796876271048565
1074,1475,0.09844670909413146,0.028878223379158872
1075,1476,0.09844670909413146,0.028959570487269177
1076,1477,0.09844670909413146,0.029040917595379485
327,569,0.09850606982172665,0.029122264703489793
328,570,0.09850606982172665,0.029203611811600097
329,571,0.09850606982172665,0.029284958919710405
330,572,0.09850606982172665,0.02936630602782071
331,573,0.09850606982172665,0.029447653135931017
332,576,0.09850606982172665,0.029529000244041325
333,577,0.09850606982172665,0.02961034735215163
334,578,0.09850606982172665,0.029691694460261937
335,580,0.09850606982172665,0.029773041568372245
336,582,0.09850606982172665,0.02985438867648255
337,585,0.09850606982172665,0.029935735784592857
338,586,0.09850606982172665,0.030017082892703165
836,1196,0.09852108105740022,0.03009843000081347
837,1197,0.09852108105740022,0.030179777108923778
838,1198,0.09852108105740022,0.030261124217034086
839,1199,0.09852108105740022,0.03034247132514439
840,1200,0.09852108105740022,0.030423818433254698
841,1201,0.09852108105740022,0.030505165541365006
842,1202,0.09852108105740022,0.03058651264947531
843,1203,0.09852108105740022,0.030667859757585618
844,1204,0.09852108105740022,0.030749206865695926
845,1205,0.09852108105740022,0.03083055397380623
846,1206,0.09852108105740022,0.030911901081916538
847,1207,0.09852108105740022,0.030993248190026846
848,1208,0.09852108105740022,0.03107459529813715
849,1209,0.09852108105740022,0.031155942406247458
850,1210,0.09852108105740022,0.031237289514357766
851,1211,0.09852108105740022,0.031318636622468074
852,1212,0.09852108105740022,0.031399983730578375
853,1213,0.09852108105740022,0.03148133083868868
870,1233,0.09855833913481192,0.03156267794679899
871,1234,0.09855833913481192,0.0316440250549093
872,1236,0.09855833913481192,0.031725372163019606
873,1237,0.09855833913481192,0.031806719271129914
874,1238,0.09855833913481192,0.031888066379240215
875,1239,0.09855833913481192,0.03196941348735052
876,1240,0.09855833913481192,0.03205076059546083
877,1241,0.09855833913481192,0.03213210770357114
878,1242,0.09855833913481192,0.03221345481168145
879,1243,0.09855833913481192,0.032294801919791755
880,1245,0.09855833913481192,0.032376149027902056
881,1247,0.09855833913481192,0.03245749613601236
882,1248,0.09855833913481192,0.03253884324412267
883,1250,0.09855833913481192,0.03262019035223298
884,1251,0.09855833913481192,0.03270153746034329
885,1252,0.09861736020438518,0.032782884568453595
886,1253,0.09861736020438518,0.032864231676563896
