,Request Id,request_execution_plus_preemption_time,cdf
124,324,2.3253387724809755,8.134710811030668e-05
125,325,2.3253387724809755,0.00016269421622061337
126,326,2.3253387724809755,0.00024404132433092005
127,328,2.3253387724809755,0.00032538843244122673
128,332,2.3253387724809755,0.0004067355405515334
129,333,2.3253387724809755,0.0004880826486618401
130,335,2.3253387724809755,0.0005694297567721468
131,336,2.3253387724809755,0.0006507768648824535
132,337,2.3253387724809755,0.0007321239729927601
133,338,2.3253387724809755,0.0008134710811030668
134,339,2.3253387724809755,0.0008948181892133735
135,340,2.3253387724809755,0.0009761652973236802
136,341,2.3253387724809755,0.0010575124054339868
137,343,2.345219983625299,0.0011388595135442936
138,344,2.345219983625299,0.0012202066216546001
139,346,2.345219983625299,0.001301553729764907
140,347,2.345219983625299,0.0013829008378752135
141,349,2.345219983625299,0.0014642479459855203
142,351,2.345219983625299,0.0015455950540958269
143,352,2.345219983625299,0.0016269421622061337
144,354,2.345219983625299,0.0017082892703164402
145,355,2.345219983625299,0.001789636378426747
146,357,2.345219983625299,0.0018709834865370536
147,359,2.345219983625299,0.0019523305946473604
148,360,2.345219983625299,0.002033677702757667
149,361,2.3673492751426553,0.0021150248108679735
150,363,2.3673492751426553,0.00219637191897828
151,364,2.3673492751426553,0.002277719027088587
152,365,2.3673492751426553,0.0023590661351988937
153,366,2.3673492751426553,0.0024404132433092003
154,367,2.3673492751426553,0.002521760351419507
155,368,2.3673492751426553,0.002603107459529814
156,369,2.3673492751426553,0.0026844545676401204
157,370,2.3673492751426553,0.002765801675750427
158,371,2.3673492751426553,0.0028471487838607336
159,372,2.3673492751426553,0.0029284958919710406
160,374,2.3673492751426553,0.003009843000081347
161,375,2.3673492751426553,0.0030911901081916537
162,376,2.3673492751426553,0.0031725372163019603
163,377,2.3673492751426553,0.0032538843244122673
164,378,2.3673492751426553,0.003335231432522574
165,379,2.3673492751426553,0.0034165785406328805
166,381,2.387720087213683,0.003497925648743187
167,383,2.387720087213683,0.003579272756853494
168,384,2.387720087213683,0.0036606198649638006
169,385,2.387720087213683,0.003741966973074107
170,386,2.387720087213683,0.0038233140811844138
171,387,2.387720087213683,0.0039046611892947208
172,389,2.387720087213683,0.003986008297405027
173,390,2.387720087213683,0.004067355405515334
174,391,2.387720087213683,0.004148702513625641
175,392,2.387720087213683,0.004230049621735947
176,393,2.387720087213683,0.004311396729846254
177,394,2.387720087213683,0.00439274383795656
178,395,2.387720087213683,0.004474090946066867
179,396,2.387720087213683,0.004555438054177174
180,397,2.387720087213683,0.00463678516228748
181,398,2.387720087213683,0.004718132270397787
119,304,2.397751700356836,0.004799479378508094
120,306,2.397751700356836,0.0048808264866184005
121,307,2.397751700356836,0.0049621735947287075
122,314,2.397751700356836,0.005043520702839014
123,321,2.397751700356836,0.005124867810949321
182,399,2.4072456072159913,0.005206214919059628
183,400,2.4072456072159913,0.005287562027169934
184,401,2.4072456072159913,0.005368909135280241
185,402,2.4072456072159913,0.005450256243390548
186,403,2.4072456072159913,0.005531603351500854
187,404,2.4072456072159913,0.005612950459611161
188,405,2.4072456072159913,0.005694297567721467
189,406,2.4072456072159913,0.005775644675831774
190,407,2.4072456072159913,0.005856991783942081
191,408,2.4072456072159913,0.005938338892052387
192,409,2.4072456072159913,0.006019686000162694
193,410,2.4072456072159913,0.006101033108273001
194,411,2.4072456072159913,0.0061823802163833074
195,414,2.4072456072159913,0.0062637273244936145
196,415,2.4072456072159913,0.006345074432603921
197,417,2.4072456072159913,0.006426421540714228
198,418,2.4276886315728734,0.006507768648824535
199,421,2.4276886315728734,0.006589115756934841
200,422,2.4276886315728734,0.006670462865045148
201,423,2.4276886315728734,0.006751809973155454
202,424,2.4276886315728734,0.006833157081265761
203,425,2.4276886315728734,0.006914504189376068
204,426,2.4276886315728734,0.006995851297486374
205,427,2.4276886315728734,0.007077198405596681
206,428,2.4276886315728734,0.007158545513706988
207,429,2.4276886315728734,0.007239892621817294
208,430,2.4276886315728734,0.007321239729927601
209,431,2.4276886315728734,0.007402586838037907
210,432,2.4276886315728734,0.007483933946148214
211,433,2.4276886315728734,0.007565281054258521
212,435,2.4276886315728734,0.0076466281623688275
213,436,2.4276886315728734,0.0077279752704791345
103,285,2.438848672130726,0.0078093223785894415
104,286,2.438848672130726,0.007890669486699748
105,287,2.438848672130726,0.007972016594810054
106,288,2.438848672130726,0.008053363702920362
107,289,2.438848672130726,0.008134710811030668
108,290,2.438848672130726,0.008216057919140974
109,292,2.438848672130726,0.008297405027251282
110,293,2.438848672130726,0.008378752135361588
111,295,2.438848672130726,0.008460099243471894
112,296,2.438848672130726,0.008541446351582202
113,297,2.438848672130726,0.008622793459692508
114,298,2.438848672130726,0.008704140567802814
115,299,2.438848672130726,0.00878548767591312
116,300,2.438848672130726,0.008866834784023428
117,302,2.438848672130726,0.008948181892133734
118,303,2.438848672130726,0.00902952900024404
214,437,2.445949274512001,0.009110876108354348
215,438,2.445949274512001,0.009192223216464655
216,439,2.445949274512001,0.00927357032457496
217,440,2.445949274512001,0.009354917432685269
218,441,2.445949274512001,0.009436264540795575
219,442,2.445949274512001,0.009517611648905881
220,443,2.445949274512001,0.009598958757016189
221,444,2.445949274512001,0.009680305865126495
222,447,2.445949274512001,0.009761652973236801
223,449,2.445949274512001,0.009843000081347109
224,450,2.445949274512001,0.009924347189457415
225,451,2.445949274512001,0.010005694297567721
226,452,2.445949274512001,0.010087041405678027
227,453,2.445949274512001,0.010168388513788335
228,454,2.445949274512001,0.010249735621898641
229,455,2.445949274512001,0.010331082730008948
230,456,2.464049163471077,0.010412429838119255
231,457,2.464049163471077,0.010493776946229562
232,458,2.464049163471077,0.010575124054339868
233,461,2.464049163471077,0.010656471162450176
234,462,2.464049163471077,0.010737818270560482
235,463,2.464049163471077,0.010819165378670788
236,465,2.464049163471077,0.010900512486781096
237,466,2.464049163471077,0.010981859594891402
238,467,2.464049163471077,0.011063206703001708
239,468,2.464049163471077,0.011144553811112014
240,469,2.464049163471077,0.011225900919222322
241,470,2.464049163471077,0.011307248027332628
242,471,2.464049163471077,0.011388595135442934
243,472,2.464049163471077,0.011469942243553242
244,473,2.464049163471077,0.011551289351663548
245,474,2.4826054178370125,0.011632636459773854
246,475,2.4826054178370125,0.011713983567884162
247,476,2.4826054178370125,0.011795330675994468
248,478,2.4826054178370125,0.011876677784104775
249,479,2.4826054178370125,0.011958024892215082
250,480,2.4826054178370125,0.012039372000325389
251,481,2.4826054178370125,0.012120719108435695
252,483,2.4826054178370125,0.012202066216546003
253,484,2.4826054178370125,0.012283413324656309
254,485,2.4826054178370125,0.012364760432766615
255,487,2.4826054178370125,0.012446107540876921
256,492,2.4826054178370125,0.012527454648987229
257,493,2.4988070514396434,0.012608801757097535
258,494,2.4988070514396434,0.012690148865207841
259,495,2.4988070514396434,0.012771495973318149
260,496,2.4988070514396434,0.012852843081428455
261,497,2.4988070514396434,0.012934190189538761
262,498,2.4988070514396434,0.01301553729764907
263,499,2.4988070514396434,0.013096884405759375
264,500,2.4988070514396434,0.013178231513869682
265,501,2.4988070514396434,0.01325957862197999
266,503,2.4988070514396434,0.013340925730090296
267,504,2.4988070514396434,0.013422272838200602
268,505,2.4988070514396434,0.013503619946310908
269,506,2.4988070514396434,0.013584967054421216
270,507,2.4988070514396434,0.013666314162531522
271,509,2.4988070514396434,0.013747661270641828
272,510,2.4988070514396434,0.013829008378752136
273,511,2.4988070514396434,0.013910355486862442
274,512,2.515234502437945,0.013991702594972748
275,513,2.515234502437945,0.014073049703083056
276,514,2.515234502437945,0.014154396811193362
277,515,2.515234502437945,0.014235743919303668
278,516,2.515234502437945,0.014317091027413976
279,517,2.515234502437945,0.014398438135524282
280,518,2.515234502437945,0.014479785243634588
281,519,2.515234502437945,0.014561132351744896
282,520,2.515234502437945,0.014642479459855202
283,521,2.515234502437945,0.014723826567965509
284,522,2.515234502437945,0.014805173676075815
285,523,2.515234502437945,0.014886520784186123
286,524,2.515234502437945,0.014967867892296429
287,525,2.515234502437945,0.015049215000406735
288,526,2.515234502437945,0.015130562108517043
289,527,2.515234502437945,0.015211909216627349
290,528,2.515234502437945,0.015293256324737655
291,529,2.515234502437945,0.015374603432847963
292,530,2.515234502437945,0.015455950540958269
1133,1536,2.52549492065087,0.015537297649068575
1134,1538,2.52549492065087,0.015618644757178883
1135,1539,2.52549492065087,0.015699991865289187
1136,1540,2.52549492065087,0.015781338973399495
1137,1541,2.52549492065087,0.015862686081509803
1138,1542,2.52549492065087,0.015944033189620108
1139,1543,2.52549492065087,0.016025380297730416
1140,1544,2.52549492065087,0.016106727405840723
1141,1545,2.52549492065087,0.016188074513951028
1142,1546,2.52549492065087,0.016269421622061336
1143,1547,2.52549492065087,0.016350768730171644
1144,1548,2.52549492065087,0.016432115838281948
1145,1549,2.52549492065087,0.016513462946392256
1146,1550,2.52549492065087,0.016594810054502564
1147,1551,2.52549492065087,0.016676157162612868
1148,1552,2.52549492065087,0.016757504270723176
1149,1553,2.52549492065087,0.016838851378833484
1150,1554,2.52549492065087,0.016920198486943788
293,531,2.5316549869781606,0.017001545595054096
294,532,2.5316549869781606,0.017082892703164404
295,533,2.5316549869781606,0.01716423981127471
296,534,2.5316549869781606,0.017245586919385016
297,535,2.5316549869781606,0.017326934027495324
298,536,2.5316549869781606,0.01740828113560563
299,537,2.5316549869781606,0.017489628243715936
300,538,2.5316549869781606,0.01757097535182624
301,539,2.5316549869781606,0.01765232245993655
302,540,2.5316549869781606,0.017733669568046857
303,541,2.5316549869781606,0.01781501667615716
304,542,2.5316549869781606,0.01789636378426747
305,543,2.5316549869781606,0.017977710892377777
306,545,2.5316549869781606,0.01805905800048808
307,546,2.5316549869781606,0.01814040510859839
308,548,2.5316549869781606,0.018221752216708697
309,549,2.5316549869781606,0.018303099324819
310,550,2.5476400322363673,0.01838444643292931
311,551,2.5476400322363673,0.018465793541039617
312,552,2.5476400322363673,0.01854714064914992
313,554,2.5476400322363673,0.01862848775726023
314,556,2.5476400322363673,0.018709834865370537
315,557,2.5476400322363673,0.01879118197348084
316,558,2.5476400322363673,0.01887252908159115
317,559,2.5476400322363673,0.018953876189701457
318,560,2.5476400322363673,0.019035223297811762
319,561,2.5476400322363673,0.01911657040592207
320,562,2.5476400322363673,0.019197917514032378
321,563,2.5476400322363673,0.019279264622142682
322,564,2.5476400322363673,0.01936061173025299
323,565,2.5476400322363673,0.019441958838363298
324,566,2.5476400322363673,0.019523305946473602
325,567,2.5476400322363673,0.01960465305458391
326,568,2.5476400322363673,0.019686000162694218
1063,1460,2.549676084854457,0.019767347270804522
1064,1461,2.549676084854457,0.01984869437891483
1065,1462,2.549676084854457,0.019930041487025135
1066,1465,2.549676084854457,0.020011388595135442
1067,1466,2.549676084854457,0.02009273570324575
1068,1468,2.549676084854457,0.020174082811356055
1069,1469,2.549676084854457,0.020255429919466363
1070,1471,2.549676084854457,0.02033677702757667
1071,1472,2.549676084854457,0.020418124135686975
1072,1473,2.549676084854457,0.020499471243797283
1073,1474,2.549676084854457,0.02058081835190759
1074,1475,2.549676084854457,0.020662165460017895
1075,1476,2.549676084854457,0.020743512568128203
1076,1477,2.549676084854457,0.02082485967623851
905,1271,2.5539423626108024,0.020906206784348815
906,1272,2.5539423626108024,0.020987553892459123
907,1273,2.5539423626108024,0.02106890100056943
908,1274,2.5539423626108024,0.021150248108679735
909,1276,2.5539423626108024,0.021231595216790043
910,1277,2.5539423626108024,0.02131294232490035
911,1278,2.5539423626108024,0.021394289433010655
912,1279,2.5539423626108024,0.021475636541120963
913,1280,2.5539423626108024,0.02155698364923127
914,1281,2.5539423626108024,0.021638330757341576
915,1282,2.5539423626108024,0.021719677865451884
916,1283,2.5539423626108024,0.02180102497356219
917,1284,2.5539423626108024,0.021882372081672496
918,1285,2.5539423626108024,0.021963719189782804
919,1286,2.5539423626108024,0.02204506629789311
920,1287,2.5539423626108024,0.022126413406003416
921,1288,2.5539423626108024,0.022207760514113724
922,1290,2.5539423626108024,0.022289107622224028
923,1292,2.5539423626108024,0.022370454730334336
924,1294,2.5539423626108024,0.022451801838444644
925,1295,2.5539423626108024,0.02253314894655495
926,1296,2.5539423626108024,0.022614496054665256
927,1298,2.5539423626108024,0.022695843162775564
928,1299,2.5539423626108024,0.02277719027088587
929,1300,2.5539423626108024,0.022858537378996176
930,1301,2.5539423626108024,0.022939884487106484
931,1302,2.5539423626108024,0.02302123159521679
932,1303,2.5539423626108024,0.023102578703327097
933,1304,2.5539423626108024,0.023183925811437404
934,1305,2.5539423626108024,0.02326527291954771
935,1307,2.5539423626108024,0.023346620027658017
936,1308,2.5539423626108024,0.023427967135768325
1098,1498,2.554451051399247,0.02350931424387863
1099,1499,2.554451051399247,0.023590661351988937
1100,1500,2.554451051399247,0.023672008460099245
1101,1501,2.554451051399247,0.02375335556820955
1102,1502,2.554451051399247,0.023834702676319857
1103,1503,2.554451051399247,0.023916049784430165
1104,1504,2.554451051399247,0.02399739689254047
1105,1505,2.554451051399247,0.024078744000650777
1106,1506,2.554451051399247,0.024160091108761085
1107,1507,2.554451051399247,0.02424143821687139
1108,1508,2.554451051399247,0.024322785324981697
1109,1509,2.554451051399247,0.024404132433092005
1110,1510,2.554451051399247,0.02448547954120231
1111,1511,2.554451051399247,0.024566826649312618
1112,1512,2.554451051399247,0.024648173757422922
1113,1513,2.554451051399247,0.02472952086553323
1114,1515,2.554451051399247,0.024810867973643538
1115,1517,2.554451051399247,0.024892215081753842
1116,1518,2.554451051399247,0.02497356218986415
1117,1519,2.554451051399247,0.025054909297974458
1118,1520,2.554451051399247,0.025136256406084762
1119,1521,2.554451051399247,0.02521760351419507
1120,1522,2.554451051399247,0.025298950622305378
1121,1523,2.554451051399247,0.025380297730415682
1122,1524,2.554451051399247,0.02546164483852599
1123,1525,2.554451051399247,0.025542991946636298
1124,1527,2.554451051399247,0.025624339054746603
1125,1528,2.554451051399247,0.02570568616285691
1126,1529,2.554451051399247,0.02578703327096722
1127,1530,2.554451051399247,0.025868380379077523
1128,1531,2.554451051399247,0.02594972748718783
1129,1532,2.554451051399247,0.02603107459529814
1130,1533,2.554451051399247,0.026112421703408443
1131,1534,2.554451051399247,0.02619376881151875
1132,1535,2.554451051399247,0.02627511591962906
937,1309,2.5575883139436706,0.026356463027739363
938,1310,2.5575883139436706,0.02643781013584967
939,1312,2.5575883139436706,0.02651915724395998
940,1313,2.5575883139436706,0.026600504352070283
941,1314,2.5575883139436706,0.02668185146018059
942,1315,2.5575883139436706,0.0267631985682909
943,1318,2.5575883139436706,0.026844545676401203
944,1321,2.5575883139436706,0.02692589278451151
945,1322,2.5575883139436706,0.027007239892621816
946,1323,2.5575883139436706,0.027088587000732123
947,1324,2.5575883139436706,0.02716993410884243
948,1325,2.5575883139436706,0.027251281216952736
1169,1574,2.5592200928203974,0.027332628325063044
1170,1575,2.5592200928203974,0.02741397543317335
1171,1577,2.5592200928203974,0.027495322541283656
1172,1578,2.5592200928203974,0.027576669649393964
1173,1579,2.5592200928203974,0.02765801675750427
1174,1580,2.5592200928203974,0.027739363865614576
1175,1581,2.5592200928203974,0.027820710973724884
1176,1582,2.5592200928203974,0.027902058081835192
1177,1584,2.5592200928203974,0.027983405189945496
1178,1585,2.5592200928203974,0.028064752298055804
1179,1586,2.5592200928203974,0.028146099406166112
1180,1587,2.5592200928203974,0.028227446514276416
1181,1588,2.5592200928203974,0.028308793622386724
1182,1590,2.5592200928203974,0.028390140730497032
1183,1591,2.5592200928203974,0.028471487838607337
1151,1555,2.559220092820398,0.028552834946717644
1152,1557,2.559220092820398,0.028634182054827952
1153,1558,2.559220092820398,0.028715529162938257
1154,1559,2.559220092820398,0.028796876271048565
1155,1560,2.559220092820398,0.028878223379158872
1156,1561,2.559220092820398,0.028959570487269177
1157,1562,2.559220092820398,0.029040917595379485
1158,1564,2.559220092820398,0.029122264703489793
1159,1566,2.559220092820398,0.029203611811600097
1160,1567,2.559220092820398,0.029284958919710405
1161,1568,2.559220092820398,0.02936630602782071
1162,1569,2.559220092820398,0.029447653135931017
1163,1570,2.559220092820398,0.029529000244041325
1164,1571,2.559220092820398,0.02961034735215163
1165,1572,2.559220092820398,0.029691694460261937
1166,1573,2.559220092820398,0.029773041568372245
327,569,2.5606628402855742,0.02985438867648255
328,570,2.5606628402855742,0.029935735784592857
329,571,2.5606628402855742,0.030017082892703165
330,572,2.5606628402855742,0.03009843000081347
331,573,2.5606628402855742,0.030179777108923778
332,576,2.5606628402855742,0.030261124217034086
333,577,2.5606628402855742,0.03034247132514439
334,578,2.5606628402855742,0.030423818433254698
335,580,2.5606628402855742,0.030505165541365006
336,582,2.5606628402855742,0.03058651264947531
337,585,2.5606628402855742,0.030667859757585618
338,586,2.5606628402855742,0.030749206865695926
949,1328,2.5620937844516543,0.03083055397380623
950,1329,2.5620937844516543,0.030911901081916538
951,1330,2.5620937844516543,0.030993248190026846
952,1331,2.5620937844516543,0.03107459529813715
953,1332,2.5620937844516543,0.031155942406247458
954,1333,2.5620937844516543,0.031237289514357766
955,1334,2.5620937844516543,0.031318636622468074
956,1335,2.5620937844516543,0.031399983730578375
957,1336,2.5620937844516543,0.03148133083868868
958,1338,2.5620937844516543,0.03156267794679899
959,1339,2.5620937844516543,0.0316440250549093
960,1340,2.5620937844516543,0.031725372163019606
961,1341,2.5620937844516543,0.031806719271129914
962,1342,2.5620937844516543,0.031888066379240215
963,1343,2.5620937844516543,0.03196941348735052
964,1344,2.5620937844516543,0.03205076059546083
965,1345,2.5620937844516543,0.03213210770357114
966,1348,2.5620937844516543,0.03221345481168145
967,1349,2.5620937844516543,0.032294801919791755
968,1351,2.5620937844516543,0.032376149027902056
969,1352,2.5620937844516543,0.03245749613601236
970,1353,2.5620937844516543,0.03253884324412267
971,1357,2.5620937844516543,0.03262019035223298
972,1358,2.5620937844516543,0.03270153746034329
973,1359,2.5620937844516543,0.032782884568453595
974,1361,2.5620937844516543,0.032864231676563896
975,1362,2.5620937844516543,0.032945578784674204
976,1364,2.5620937844516543,0.03302692589278451
977,1365,2.5620937844516543,0.03310827300089482
1184,1593,2.563989134241548,0.03318962010900513
1185,1594,2.563989134241548,0.03327096721711543
1186,1595,2.563989134241548,0.033352314325225736
1187,1596,2.563989134241548,0.033433661433336044
1188,1597,2.563989134241548,0.03351500854144635
1189,1598,2.563989134241548,0.03359635564955666
1190,1600,2.563989134241548,0.03367770275766697
