,Request Id,request_preemption_time,cdf
0,0,0.0,9.441979038806533e-05
1,1,0.0,0.00018883958077613066
2,2,0.0,0.000283259371164196
3,3,0.0,0.00037767916155226133
4,5,0.0,0.0004720989519403267
5,6,0.0,0.000566518742328392
6,7,0.0,0.0006609385327164573
7,8,0.0,0.0007553583231045227
8,9,0.0,0.0008497781134925881
9,10,0.0,0.0009441979038806534
10,11,0.0,0.0010386176942687188
11,12,0.0,0.001133037484656784
12,13,0.0,0.0012274572750448495
13,14,0.0,0.0013218770654329147
14,15,0.0,0.00141629685582098
15,16,0.0,0.0015107166462090453
16,17,0.0,0.0016051364365971107
17,18,0.0,0.0016995562269851762
18,19,0.0,0.0017939760173732414
19,20,0.0,0.0018883958077613068
20,21,0.0,0.0019828155981493722
21,22,0.0,0.0020772353885374377
22,23,0.0,0.0021716551789255027
23,24,0.0,0.002266074969313568
24,26,0.0,0.0023604947597016335
25,27,0.0,0.002454914550089699
26,28,0.0,0.002549334340477764
27,29,0.0,0.0026437541308658294
28,30,0.0,0.0027381739212538948
29,31,0.0,0.00283259371164196
30,32,0.0,0.0029270135020300256
31,33,0.0,0.0030214332924180906
32,34,0.0,0.003115853082806156
33,36,0.0,0.0032102728731942215
34,37,0.0,0.003304692663582287
35,38,0.0,0.0033991124539703523
36,39,0.0,0.0034935322443584173
37,40,0.0,0.0035879520347464828
38,41,0.0,0.003682371825134548
39,42,0.0,0.0037767916155226136
40,43,0.0,0.003871211405910679
41,44,0.0,0.0039656311962987445
42,46,0.0,0.0040600509866868095
43,47,0.0,0.004154470777074875
44,48,0.0,0.00424889056746294
45,49,0.0,0.004343310357851005
46,50,0.0,0.004437730148239071
47,51,0.0,0.004532149938627136
48,52,0.0,0.004626569729015202
49,53,0.0,0.004720989519403267
50,54,0.0,0.004815409309791332
51,55,0.0,0.004909829100179398
52,56,0.0,0.005004248890567463
53,57,0.0,0.005098668680955528
54,58,0.0,0.005193088471343594
55,59,0.0,0.005287508261731659
56,60,0.0,0.005381928052119725
57,61,0.0,0.0054763478425077896
58,63,0.0,0.0055707676328958546
59,64,0.0,0.00566518742328392
60,65,0.0,0.005759607213671985
61,66,0.0,0.005854027004060051
62,67,0.0,0.005948446794448116
63,68,0.0,0.006042866584836181
64,69,0.0,0.006137286375224247
65,70,0.0,0.006231706165612312
66,71,0.0,0.006326125956000378
67,72,0.0,0.006420545746388443
68,73,0.0,0.006514965536776508
69,74,0.0,0.006609385327164574
70,75,0.0,0.006703805117552639
71,76,0.0,0.006798224907940705
72,77,0.0,0.00689264469832877
73,78,0.0,0.006987064488716835
74,79,0.0,0.0070814842791049005
75,80,0.0,0.0071759040694929655
76,81,0.0,0.007270323859881031
77,82,0.0,0.007364743650269096
78,83,0.0,0.007459163440657161
79,84,0.0,0.007553583231045227
80,85,0.0,0.007648003021433292
81,86,0.0,0.007742422811821358
82,88,0.0,0.007836842602209423
83,89,0.0,0.007931262392597489
84,90,0.0,0.008025682182985553
85,91,0.0,0.008120101973373619
86,92,0.0,0.008214521763761685
87,93,0.0,0.00830894155414975
88,94,0.0,0.008403361344537815
89,95,0.0,0.00849778113492588
90,96,0.0,0.008592200925313946
91,97,0.0,0.00868662071570201
92,98,0.0,0.008781040506090076
93,99,0.0,0.008875460296478142
94,100,0.0,0.008969880086866206
95,101,0.0,0.009064299877254272
96,102,0.0,0.009158719667642338
97,103,0.0,0.009253139458030404
98,104,0.0,0.009347559248418468
99,105,0.0,0.009441979038806534
100,106,0.0,0.0095363988291946
101,107,0.0,0.009630818619582664
102,108,0.0,0.00972523840997073
103,109,0.0,0.009819658200358796
104,110,0.0,0.00991407799074686
105,111,0.0,0.010008497781134926
106,112,0.0,0.010102917571522992
107,113,0.0,0.010197337361911056
108,114,0.0,0.010291757152299122
109,115,0.0,0.010386176942687187
110,116,0.0,0.010480596733075253
111,117,0.0,0.010575016523463317
112,118,0.0,0.010669436313851383
113,119,0.0,0.01076385610423945
114,120,0.0,0.010858275894627513
115,121,0.0,0.010952695685015579
116,122,0.0,0.011047115475403645
117,123,0.0,0.011141535265791709
118,124,0.0,0.011235955056179775
119,125,0.0,0.01133037484656784
120,126,0.0,0.011424794636955907
121,127,0.0,0.01151921442734397
122,128,0.0,0.011613634217732037
123,129,0.0,0.011708054008120103
124,130,0.0,0.011802473798508167
125,132,0.0,0.011896893588896233
126,133,0.0,0.011991313379284298
127,134,0.0,0.012085733169672363
128,135,0.0,0.012180152960060428
129,136,0.0,0.012274572750448494
130,138,0.0,0.01236899254083656
131,139,0.0,0.012463412331224624
132,140,0.0,0.01255783212161269
133,141,0.0,0.012652251912000756
134,142,0.0,0.01274667170238882
135,143,0.0,0.012841091492776886
136,144,0.0,0.012935511283164952
137,145,0.0,0.013029931073553016
138,146,0.0,0.013124350863941082
139,147,0.0,0.013218770654329148
140,148,0.0,0.013313190444717213
141,150,0.0,0.013407610235105278
142,152,0.0,0.013502030025493343
143,153,0.0,0.01359644981588141
144,154,0.0,0.013690869606269473
145,155,0.0,0.01378528939665754
146,156,0.0,0.013879709187045605
147,157,0.0,0.01397412897743367
148,158,0.0,0.014068548767821735
149,159,0.0,0.014162968558209801
150,160,0.0,0.014257388348597867
151,161,0.0,0.014351808138985931
152,162,0.0,0.014446227929373997
153,163,0.0,0.014540647719762063
154,165,0.0,0.014635067510150127
155,166,0.0,0.014729487300538193
156,167,0.0,0.014823907090926259
157,168,0.0,0.014918326881314323
158,169,0.0,0.015012746671702389
159,170,0.0,0.015107166462090454
160,171,0.0,0.01520158625247852
161,172,0.0,0.015296006042866584
162,173,0.0,0.01539042583325465
163,174,0.0,0.015484845623642716
164,175,0.0,0.01557926541403078
165,176,0.0,0.015673685204418846
166,177,0.0,0.015768104994806912
167,178,0.0,0.015862524785194978
168,179,0.0,0.015956944575583044
169,180,0.0,0.016051364365971106
170,181,0.0,0.016145784156359172
171,182,0.0,0.016240203946747238
172,183,0.0,0.016334623737135304
173,184,0.0,0.01642904352752337
174,185,0.0,0.016523463317911435
175,186,0.0,0.0166178831082995
176,187,0.0,0.016712302898687564
177,188,0.0,0.01680672268907563
178,189,0.0,0.016901142479463695
179,190,0.0,0.01699556226985176
180,191,0.0,0.017089982060239827
181,192,0.0,0.017184401850627893
182,193,0.0,0.017278821641015955
183,194,0.0,0.01737324143140402
184,195,0.0,0.017467661221792087
185,196,0.0,0.017562081012180153
186,197,0.0,0.01765650080256822
187,198,0.0,0.017750920592956285
188,199,0.0,0.01784534038334435
189,200,0.0,0.017939760173732413
190,201,0.0,0.01803417996412048
191,202,0.0,0.018128599754508545
192,204,0.0,0.01822301954489661
193,205,0.0,0.018317439335284676
194,206,0.0,0.018411859125672742
195,207,0.0,0.018506278916060808
196,208,0.0,0.01860069870644887
197,209,0.0,0.018695118496836936
198,210,0.0,0.018789538287225002
199,211,0.0,0.018883958077613068
200,212,0.0,0.018978377868001134
201,213,0.0,0.0190727976583892
202,214,0.0,0.019167217448777262
203,215,0.0,0.019261637239165328
204,216,0.0,0.019356057029553394
205,217,0.0,0.01945047681994146
206,218,0.0,0.019544896610329526
207,219,0.0,0.01963931640071759
208,220,0.0,0.019733736191105657
209,221,0.0,0.01982815598149372
210,222,0.0,0.019922575771881786
211,223,0.0,0.02001699556226985
212,224,0.0,0.020111415352657917
213,225,0.0,0.020205835143045983
214,226,0.0,0.02030025493343405
215,227,0.0,0.02039467472382211
216,228,0.0,0.020489094514210177
217,229,0.0,0.020583514304598243
218,230,0.0,0.02067793409498631
219,231,0.0,0.020772353885374375
220,232,0.0,0.02086677367576244
221,233,0.0,0.020961193466150507
222,234,0.0,0.02105561325653857
223,235,0.0,0.021150033046926635
224,236,0.0,0.0212444528373147
225,237,0.0,0.021338872627702767
226,238,0.0,0.021433292418090832
227,239,0.0,0.0215277122084789
228,240,0.0,0.021622131998866964
229,241,0.0,0.021716551789255027
230,242,0.0,0.021810971579643092
231,243,0.0,0.021905391370031158
232,244,0.0,0.021999811160419224
233,245,0.0,0.02209423095080729
234,246,0.0,0.022188650741195356
235,247,0.0,0.022283070531583418
236,248,0.0,0.022377490321971484
237,249,0.0,0.02247191011235955
238,250,0.0,0.022566329902747616
239,251,0.0,0.02266074969313568
240,252,0.0,0.022755169483523748
241,253,0.0,0.022849589273911813
242,254,0.0,0.022944009064299876
243,255,0.0,0.02303842885468794
244,256,0.0,0.023132848645076007
245,257,0.0,0.023227268435464073
246,258,0.0,0.02332168822585214
247,259,0.0,0.023416108016240205
248,260,0.0,0.02351052780662827
249,262,0.0,0.023604947597016333
250,263,0.0,0.0236993673874044
251,264,0.0,0.023793787177792465
252,265,0.0,0.02388820696818053
253,266,0.0,0.023982626758568597
254,267,0.0,0.024077046548956663
255,268,0.0,0.024171466339344725
256,269,0.0,0.02426588612973279
257,270,0.0,0.024360305920120857
258,271,0.0,0.024454725710508923
259,272,0.0,0.02454914550089699
260,273,0.0,0.024643565291285054
261,274,0.0,0.02473798508167312
262,275,0.0,0.024832404872061183
263,276,0.0,0.02492682466244925
264,277,0.0,0.025021244452837314
265,278,0.0,0.02511566424322538
266,280,0.0,0.025210084033613446
267,281,0.0,0.025304503824001512
268,282,0.0,0.025398923614389578
269,283,0.0,0.02549334340477764
270,284,0.0,0.025587763195165706
271,285,0.0,0.025682182985553772
272,286,0.0,0.025776602775941838
273,287,0.0,0.025871022566329904
274,288,0.0,0.02596544235671797
275,289,0.0,0.026059862147106032
276,290,0.0,0.026154281937494098
277,291,0.0,0.026248701727882164
278,292,0.0,0.02634312151827023
279,293,0.0,0.026437541308658295
280,294,0.0,0.02653196109904636
281,295,0.0,0.026626380889434427
282,296,0.0,0.02672080067982249
283,297,0.0,0.026815220470210555
284,298,0.0,0.02690964026059862
285,299,0.0,0.027004060050986687
286,300,0.0,0.027098479841374753
287,301,0.0,0.02719289963176282
288,302,0.0,0.027287319422150885
289,303,0.0,0.027381739212538947
290,304,0.0,0.027476159002927013
291,305,0.0,0.02757057879331508
292,306,0.0,0.027664998583703145
293,307,0.0,0.02775941837409121
294,309,0.0,0.027853838164479276
295,310,0.0,0.02794825795486734
296,311,0.0,0.028042677745255404
297,312,0.0,0.02813709753564347
298,313,0.0,0.028231517326031536
300,315,0.0,0.028325937116419602
301,316,0.0,0.028420356906807668
316,333,0.0,0.028514776697195734
317,334,0.0,0.028609196487583796
319,336,0.0,0.028703616277971862
322,340,0.0,0.028798036068359928
324,342,0.0,0.028892455858747994
325,343,0.0,0.02898687564913606
326,344,0.0,0.029081295439524125
327,345,0.0,0.029175715229912188
403,427,0.0,0.029270135020300254
404,428,0.0,0.02936455481068832
405,429,0.0,0.029458974601076385
406,430,0.0,0.02955339439146445
407,431,0.0,0.029647814181852517
408,432,0.0,0.029742233972240583
409,434,0.0,0.029836653762628645
410,435,0.0,0.02993107355301671
411,436,0.0,0.030025493343404777
412,437,0.0,0.030119913133792843
413,438,0.0,0.03021433292418091
414,439,0.0,0.030308752714568975
415,440,0.0,0.03040317250495704
416,441,0.0,0.030497592295345103
417,442,0.0,0.03059201208573317
418,443,0.0,0.030686431876121235
419,444,0.0,0.0307808516665093
420,445,0.0,0.030875271456897366
421,446,0.0,0.030969691247285432
422,447,0.0,0.031064111037673495
423,448,0.0,0.03115853082806156
424,449,0.0,0.031252950618449626
425,450,0.0,0.03134737040883769
426,451,0.0,0.03144179019922576
427,452,0.0,0.031536209989613824
428,453,0.0,0.03163062978000189
429,454,0.0,0.031725049570389956
430,455,0.0,0.03181946936077802
431,456,0.0,0.03191388915116609
432,457,0.0,0.032008308941554146
433,458,0.0,0.03210272873194221
434,459,0.0,0.03219714852233028
435,460,0.0,0.032291568312718344
436,461,0.0,0.03238598810310641
437,462,0.0,0.032480407893494476
438,463,0.0,0.03257482768388254
439,464,0.0,0.03266924747427061
440,466,0.0,0.03276366726465867
441,467,0.0,0.03285808705504674
442,468,0.0,0.032952506845434805
443,471,0.0,0.03304692663582287
444,474,0.0,0.03314134642621094
445,475,0.0,0.033235766216599
446,476,0.0,0.03333018600698706
447,477,0.0,0.03342460579737513
448,479,0.0,0.03351902558776319
449,482,0.0,0.03361344537815126
450,483,0.0,0.033707865168539325
451,484,0.0,0.03380228495892739
452,485,0.0,0.03389670474931546
453,486,0.0,0.03399112453970352
454,487,0.0,0.03408554433009159
455,488,0.0,0.034179964120479654
456,489,0.0,0.03427438391086772
457,490,0.0,0.034368803701255786
458,491,0.0,0.03446322349164385
459,492,0.0,0.03455764328203191
460,493,0.0,0.03465206307241998
461,494,0.0,0.03474648286280804
462,495,0.0,0.03484090265319611
463,498,0.0,0.034935322443584174
464,501,0.0,0.03502974223397224
465,502,0.0,0.035124162024360306
466,503,0.0,0.03521858181474837
467,505,0.0,0.03531300160513644
468,506,0.0,0.0354074213955245
469,507,0.0,0.03550184118591257
470,508,0.0,0.035596260976300635
471,510,0.0,0.0356906807666887
472,511,0.0,0.03578510055707676
473,512,0.0,0.035879520347464826
474,513,0.0,0.03597394013785289
475,514,0.0,0.03606835992824096
476,516,0.0,0.03616277971862902
477,517,0.0,0.03625719950901709
478,518,0.0,0.036351619299405155
479,519,0.0,0.03644603908979322
480,520,0.0,0.03654045888018129
481,522,0.0,0.03663487867056935
482,523,0.0,0.03672929846095742
483,524,0.0,0.036823718251345484
484,525,0.0,0.03691813804173355
485,526,0.0,0.037012557832121616
486,527,0.0,0.037106977622509675
487,530,0.0,0.03720139741289774
488,531,0.0,0.03729581720328581
489,533,0.0,0.03739023699367387
490,534,0.0,0.03748465678406194
491,536,0.0,0.037579076574450004
492,537,0.0,0.03767349636483807
493,538,0.0,0.037767916155226136
494,539,0.0,0.0378623359456142
495,540,0.0,0.03795675573600227
496,541,0.0,0.038051175526390334
497,543,0.0,0.0381455953167784
498,544,0.0,0.038240015107166465
499,545,0.0,0.038334434897554524
500,546,0.0,0.03842885468794259
501,547,0.0,0.038523274478330656
502,548,0.0,0.03861769426871872
503,549,0.0,0.03871211405910679
504,551,0.0,0.038806533849494854
505,552,0.0,0.03890095363988292
506,553,0.0,0.038995373430270985
507,554,0.0,0.03908979322065905
508,555,0.0,0.03918421301104712
509,556,0.0,0.03927863280143518
510,557,0.0,0.03937305259182325
511,558,0.0,0.039467472382211315
512,559,0.0,0.039561892172599374
513,561,0.0,0.03965631196298744
514,562,0.0,0.039750731753375505
515,563,0.0,0.03984515154376357
516,564,0.0,0.03993957133415164
517,565,0.0,0.0400339911245397
518,566,0.0,0.04012841091492777
519,568,0.0,0.040222830705315835
520,569,0.0,0.0403172504957039
521,571,0.0,0.040411670286091966
522,572,0.0,0.04050609007648003
523,573,0.0,0.0406005098668681
524,574,0.0,0.040694929657256164
525,575,0.0,0.04078934944764422
526,576,0.0,0.04088376923803229
527,577,0.0,0.040978189028420355
528,578,0.0,0.04107260881880842
529,579,0.0,0.041167028609196486
530,581,0.0,0.04126144839958455
531,582,0.0,0.04135586818997262
532,583,0.0,0.041450287980360684
533,584,0.0,0.04154470777074875
534,585,0.0,0.041639127561136816
535,586,0.0,0.04173354735152488
536,587,0.0,0.04182796714191295
537,588,0.0,0.04192238693230101
538,589,0.0,0.04201680672268908
539,590,0.0,0.04211122651307714
540,591,0.0,0.042205646303465204
541,594,0.0,0.04230006609385327
542,596,0.0,0.042394485884241336
543,597,0.0,0.0424889056746294
544,598,0.0,0.04258332546501747
545,600,0.0,0.04267774525540553
546,601,0.0,0.0427721650457936
547,602,0.0,0.042866584836181665
548,603,0.0,0.04296100462656973
549,604,0.0,0.0430554244169578
550,605,0.0,0.04314984420734586
551,606,0.0,0.04324426399773393
552,608,0.0,0.04333868378812199
553,609,0.0,0.04343310357851005
554,610,0.0,0.04352752336889812
555,611,0.0,0.043621943159286185
556,612,0.0,0.04371636294967425
557,613,0.0,0.043810782740062316
558,616,0.0,0.04390520253045038
559,618,0.0,0.04399962232083845
560,619,0.0,0.044094042111226514
561,620,0.0,0.04418846190161458
562,621,0.0,0.044282881692002646
563,622,0.0,0.04437730148239071
564,623,0.0,0.04447172127277878
565,624,0.0,0.044566141063166836
566,625,0.0,0.0446605608535549
567,626,0.0,0.04475498064394297
568,627,0.0,0.044849400434331034
569,628,0.0,0.0449438202247191
570,629,0.0,0.045038240015107166
571,630,0.0,0.04513265980549523
572,631,0.0,0.0452270795958833
573,632,0.0,0.04532149938627136
574,633,0.0,0.04541591917665943
576,634,0.0,0.045510338967047495
578,635,0.0,0.04560475875743556
580,636,0.0,0.04569917854782363
582,637,0.0,0.04579359833821169
584,638,0.0,0.04588801812859975
586,639,0.0,0.04598243791898782
588,640,0.0,0.04607685770937588
591,642,0.0,0.04617127749976395
594,644,0.0,0.046265697290152015
600,649,0.0,0.04636011708054008
602,650,0.0,0.04645453687092815
604,651,0.0,0.04654895666131621
606,652,0.0,0.04664337645170428
613,657,0.0,0.046737796242092344
615,658,0.0,0.04683221603248041
617,660,0.0,0.046926635822868476
618,661,0.0,0.04702105561325654
620,662,0.0,0.0471154754036446
621,663,0.0,0.04720989519403267
623,664,0.0,0.04730431498442073
625,666,0.0,0.0473987347748088
626,667,0.0,0.047493154565196864
628,668,0.0,0.04758757435558493
629,669,0.0,0.047681994145972996
631,670,0.0,0.04777641393636106
632,671,0.0,0.04787083372674913
634,673,0.0,0.047965253517137194
636,674,0.0,0.04805967330752526
637,675,0.0,0.048154093097913325
639,676,0.0,0.04824851288830139
640,677,0.0,0.04834293267868945
642,678,0.0,0.048437352469077516
643,679,0.0,0.04853177225946558
645,680,0.0,0.04862619204985365
646,681,0.0,0.048720611840241713
648,682,0.0,0.04881503163062978
649,683,0.0,0.048909451421017845
651,684,0.0,0.04900387121140591
652,685,0.0,0.04909829100179398
654,687,0.0,0.04919271079218204
655,504,0.0,0.04928713058257011
656,688,0.0,0.049381550372958175
657,691,0.0,0.04947597016334624
658,692,0.0,0.0495703899537343
659,693,0.0,0.049664809744122365
665,701,0.0,0.04975922953451043
666,702,0.0,0.0498536493248985
667,703,0.0,0.04994806911528656
668,709,0.0,0.05004248890567463
669,711,0.0,0.050136908696062694
681,727,0.0,0.05023132848645076
682,728,0.0,0.050325748276838826
684,729,0.0,0.05042016806722689
709,756,0.0,0.05051458785761496
710,757,0.0,0.050609007648003024
711,758,0.0,0.05070342743839109
712,759,0.0,0.050797847228779155
713,760,0.0,0.050892267019167214
767,818,0.0,0.05098668680955528
768,820,0.0,0.051081106599943346
769,821,0.0,0.05117552639033141
770,822,0.0,0.05126994618071948
771,823,0.0,0.051364365971107544
772,824,0.0,0.05145878576149561
773,825,0.0,0.051553205551883675
774,826,0.0,0.05164762534227174
775,827,0.0,0.05174204513265981
776,828,0.0,0.05183646492304787
777,829,0.0,0.05193088471343594
778,830,0.0,0.052025304503824005
779,831,0.0,0.052119724294212064
780,832,0.0,0.05221414408460013
781,833,0.0,0.052308563874988195
782,834,0.0,0.05240298366537626
783,835,0.0,0.05249740345576433
784,836,0.0,0.05259182324615239
785,837,0.0,0.05268624303654046
786,840,0.0,0.052780662826928525
787,841,0.0,0.05287508261731659
788,842,0.0,0.052969502407704656
789,844,0.0,0.05306392219809272
790,845,0.0,0.05315834198848079
791,846,0.0,0.053252761778868854
792,847,0.0,0.05334718156925691
793,848,0.0,0.05344160135964498
794,849,0.0,0.053536021150033045
795,850,0.0,0.05363044094042111
796,851,0.0,0.053724860730809176
797,852,0.0,0.05381928052119724
798,853,0.0,0.05391370031158531
799,854,0.0,0.054008120101973374
800,855,0.0,0.05410253989236144
801,856,0.0,0.054196959682749506
802,857,0.0,0.05429137947313757
803,858,0.0,0.05438579926352564
804,859,0.0,0.0544802190539137
805,860,0.0,0.05457463884430177
806,861,0.0,0.05466905863468983
807,862,0.0,0.054763478425077894
808,863,0.0,0.05485789821546596
809,864,0.0,0.054952318005854026
810,865,0.0,0.05504673779624209
811,866,0.0,0.05514115758663016
812,867,0.0,0.05523557737701822
813,868,0.0,0.05532999716740629
814,869,0.0,0.055424416957794355
815,870,0.0,0.05551883674818242
816,871,0.0,0.05561325653857049
817,872,0.0,0.05570767632895855
818,873,0.0,0.05580209611934662
819,874,0.0,0.05589651590973468
820,875,0.0,0.05599093570012274
821,876,0.0,0.05608535549051081
822,877,0.0,0.056179775280898875
823,878,0.0,0.05627419507128694
824,879,0.0,0.05636861486167501
825,880,0.0,0.05646303465206307
826,881,0.0,0.05655745444245114
827,882,0.0,0.056651874232839204
828,883,0.0,0.05674629402322727
829,884,0.0,0.056840713813615336
830,885,0.0,0.0569351336040034
831,886,0.0,0.05702955339439147
832,887,0.0,0.057123973184779527
833,888,0.0,0.05721839297516759
834,889,0.0,0.05731281276555566
835,890,0.0,0.057407232555943724
836,891,0.0,0.05750165234633179
837,892,0.0,0.057596072136719856
838,893,0.0,0.05769049192710792
839,894,0.0,0.05778491171749599
840,895,0.0,0.05787933150788405
841,896,0.0,0.05797375129827212
842,897,0.0,0.058068171088660185
843,898,0.0,0.05816259087904825
844,899,0.0,0.05825701066943632
845,900,0.0,0.058351430459824376
846,901,0.0,0.05844585025021244
