,Request Id,request_e2e_time_normalized,cdf
0,0,0.013136256600258871,9.441979038806533e-05
1,1,0.013272574722615121,0.00018883958077613066
2,2,0.013417758721218864,0.000283259371164196
3,3,0.013535993139633655,0.00037767916155226133
4,5,0.01374332069652409,0.0004720989519403267
5,6,0.013874957654810787,0.000566518742328392
6,7,0.01398818138309748,0.0006609385327164573
7,8,0.014104901031384176,0.0007553583231045227
8,9,0.014203973216947434,0.0008497781134925881
9,10,0.014340444915234129,0.0009441979038806534
10,11,0.014486879583520827,0.0010386176942687188
11,12,0.014572714333983073,0.001133037484656784
12,13,0.01464911610426977,0.0012274572750448495
13,14,0.014736600674556465,0.0013218770654329147
14,15,0.014890740584843163,0.00141629685582098
15,16,0.01504004092512986,0.0015107166462090453
16,17,0.015183309725416556,0.0016051364365971107
17,18,0.015328514405703254,0.0016995562269851762
18,19,0.01542571525598995,0.0017939760173732414
19,20,0.015537775676276646,0.0018883958077613068
20,21,0.015684468196563342,0.0019828155981493722
21,22,0.01583219758685004,0.0020772353885374377
22,23,0.015973539597136734,0.0021716551789255027
23,24,0.016116535937423432,0.002266074969313568
24,26,0.016421491005867653,0.0023604947597016335
25,27,0.01654152963202518,0.002454914550089699
26,28,0.01667228917818271,0.002549334340477764
27,29,0.016873731710247288,0.0026437541308658294
28,30,0.017061522544311866,0.0027381739212538948
29,31,0.017242837150376444,0.00283259371164196
30,32,0.017435169140441024,0.0029270135020300256
31,33,0.017513499499079575,0.0030214332924180906
32,34,0.017713611435718125,0.003115853082806156
33,36,0.018103581466995235,0.0032102728731942215
34,37,0.018299936937049763,0.003304692663582287
35,38,0.018485101167104293,0.0033991124539703523
36,39,0.01868216362115882,0.0034935322443584173
37,40,0.018881336703213347,0.0035879520347464828
38,41,0.019055530370035278,0.003682371825134548
39,42,0.01925165229685721,0.0037767916155226136
40,43,0.01943285559567914,0.003871211405910679
41,44,0.01961031053650107,0.0039656311962987445
42,46,0.01992981904252588,0.0040600509866868095
43,47,0.020104517829538288,0.004154470777074875
44,48,0.020291864534550695,0.00424889056746294
45,49,0.020499478907889713,0.004343310357851005
46,50,0.020693399945228737,0.004437730148239071
47,51,0.020901400422567763,0.004532149938627136
48,52,0.021060738405906783,0.004626569729015202
49,53,0.021256133458198184,0.004720989519403267
50,54,0.021451509150489594,0.004815409309791332
51,55,0.021635472330114328,0.004909829100179398
52,56,0.021726321451739063,0.005004248890567463
53,57,0.021810010538241643,0.005098668680955528
54,58,0.021966916102077558,0.005193088471343594
55,59,0.02215885745626542,0.005287508261731659
56,60,0.022310677430453278,0.005381928052119725
57,61,0.02248466136464114,0.0054763478425077896
58,63,0.022806761653016858,0.0055707676328958546
59,64,0.02295316903720472,0.00566518742328392
60,65,0.023146445291392582,0.005759607213671985
61,66,0.023321336625580436,0.005854027004060051
62,67,0.023502752799768302,0.005948446794448116
63,68,0.02368207435395616,0.006042866584836181
64,69,0.02384731178814402,0.006137286375224247
65,70,0.024001305602331883,0.006231706165612312
66,71,0.02417832372651974,0.006326125956000378
67,72,0.0242520041107076,0.006420545746388443
68,73,0.02441443256489546,0.006514965536776508
69,74,0.024594174679083324,0.006609385327164574
70,75,0.02473277416327118,0.006703805117552639
71,76,0.02494157544332571,0.006798224907940705
72,77,0.02514003864338024,0.00689264469832877
73,78,0.02533275182343477,0.006987064488716835
74,79,0.025476797943489296,0.0070814842791049005
75,80,0.025658925553543828,0.0071759040694929655
76,81,0.025804913173598357,0.007270323859881031
77,82,0.02598387349365289,0.007364743650269096
78,83,0.026153451703707416,0.007459163440657161
79,84,0.026351773483761946,0.007553583231045227
80,85,0.026553171963816475,0.007648003021433292
81,86,0.026611751173871004,0.007742422811821358
82,88,0.027023873933980064,0.007836842602209423
83,89,0.027229081694034592,0.007931262392597489
84,90,0.02741593377408912,0.008025682182985553
85,91,0.02755372024414365,0.008120101973373619
86,92,0.02775597696419818,0.008214521763761685
87,93,0.027918105734252713,0.00830894155414975
88,94,0.02808031953430724,0.008403361344537815
89,95,0.02826088513436177,0.00849778113492588
90,96,0.0284491167644163,0.008592200925313946
91,97,0.028810971554052735,0.00868662071570201
92,98,0.029006832754107266,0.008781040506090076
93,99,0.029389617463743706,0.008875460296478142
95,101,0.029654642353434672,0.008969880086866206
94,100,0.029674508293380145,0.009064299877254272
96,102,0.029833509333489203,0.009158719667642338
97,103,0.030028386703543734,0.009253139458030404
98,104,0.03014623358359826,0.009347559248418468
99,105,0.0304444050632347,0.009441979038806534
100,106,0.03065128373328923,0.0095363988291946
101,107,0.030916193372925668,0.009630818619582664
102,108,0.0310951319329802,0.00972523840997073
103,109,0.03128309059462411,0.009819658200358796
104,110,0.03147723949626803,0.00991407799074686
105,111,0.031651278147911945,0.010008497781134926
106,112,0.03180267582955586,0.010102917571522992
107,113,0.031956050161199775,0.010197337361911056
108,114,0.0320963454589852,0.010291757152299122
109,115,0.03221487083963731,0.010386176942687187
110,116,0.03231276968664702,0.010480596733075253
111,117,0.03245313863699699,0.010575016523463317
112,118,0.03256867664328368,0.010669436313851383
113,119,0.032710093079887426,0.01076385610423945
115,121,0.03280163132017412,0.010858275894627513
114,120,0.03280427333017412,0.010952695685015579
117,123,0.032920879024460815,0.011047115475403645
116,122,0.03294929140446081,0.011141535265791709
119,125,0.03303321035945424,0.011235955056179775
118,124,0.03303776356945423,0.01133037484656784
121,127,0.03305592697907249,0.011424794636955907
120,126,0.03307158058907249,0.01151921442734397
123,129,0.03317206155469074,0.011613634217732037
122,128,0.03319271166469074,0.011708054008120103
124,130,0.03329492017830899,0.011802473798508167
126,133,0.03346867748795291,0.011896893588896233
125,132,0.03348133123795291,0.011991313379284298
128,135,0.03354514095859146,0.012085733169672363
127,134,0.033672346698591454,0.012180152960060428
129,136,0.03370484111825983,0.012274572750448494
133,141,0.033790677382867194,0.01236899254083656
131,139,0.033822100709081766,0.012463412331224624
130,138,0.033830651589081766,0.01255783212161269
135,143,0.0339023399915193,0.012652251912000756
134,142,0.0339064718515193,0.01274667170238882
132,140,0.03397216937286719,0.012841091492776886
137,145,0.034027452141583876,0.012935511283164952
136,144,0.03410480002158388,0.013029931073553016
139,147,0.03416907556164846,0.013124350863941082
138,146,0.03420765212164845,0.013218770654329148
140,148,0.03433197632171303,0.013313190444717213
141,150,0.03448960167253496,0.013407610235105278
143,153,0.03467580464335689,0.013502030025493343
142,152,0.034682962843356896,0.01359644981588141
145,155,0.03481556963342147,0.013690869606269473
144,154,0.034856202343421475,0.01378528939665754
147,157,0.034982698223486056,0.013879709187045605
146,156,0.034994217373486056,0.01397412897743367
149,159,0.03511470934355063,0.014068548767821735
148,158,0.03516462789355064,0.014162968558209801
151,161,0.03529208458361522,0.014257388348597867
150,160,0.035312608603615216,0.014351808138985931
153,163,0.035388830013679796,0.014446227929373997
152,162,0.035404092133679795,0.014540647719762063
154,165,0.03552295050374438,0.014635067510150127
156,167,0.035705317754566306,0.014729487300538193
155,166,0.0357121919245663,0.014823907090926259
158,169,0.035788483974630886,0.014918326881314323
157,168,0.03586135993463089,0.015012746671702389
160,171,0.035945472584695465,0.015107166462090454
159,170,0.03595072889469547,0.01520158625247852
162,173,0.03603317867476005,0.015296006042866584
161,172,0.03610261451476005,0.01539042583325465
164,175,0.03622116502482463,0.015484845623642716
163,174,0.03623337859482463,0.01557926541403078
166,177,0.03635995729488921,0.015673685204418846
165,176,0.03638952356488921,0.015768104994806912
168,179,0.03643805114495379,0.015862524785194978
167,178,0.03648272515495379,0.015956944575583044
170,181,0.03660081912501838,0.016051364365971106
169,180,0.03660465988501837,0.016145784156359172
172,183,0.036766533475082956,0.016240203946747238
171,182,0.03677312130508295,0.016334623737135304
174,185,0.03689062054514753,0.01642904352752337
173,184,0.03690314533514753,0.016523463317911435
175,186,0.03707473320521211,0.0166178831082995
176,187,0.03726479754985065,0.016712302898687564
177,188,0.03743988190848921,0.01680672268907563
178,189,0.03761210901912776,0.016901142479463695
179,190,0.037784184109766306,0.01699556226985176
180,191,0.037934256783844045,0.017089982060239827
181,192,0.038106310073898586,0.017184401850627893
183,194,0.038259284898168947,0.017278821641015955
182,193,0.03825967233055069,0.01737324143140402
184,195,0.0382935590617872,0.017467661221792087
185,196,0.03848341064242575,0.017562081012180153
186,197,0.03863175760650349,0.01765650080256822
187,198,0.038740334160121744,0.017750920592956285
188,199,0.03889530161527834,0.01784534038334435
189,200,0.03900077326043495,0.017939760173732413
190,201,0.03912120441559155,0.01803417996412048
191,202,0.03924813986074815,0.018128599754508545
192,204,0.03955752035206229,0.01822301954489661
193,205,0.03966710207721889,0.018317439335284676
194,206,0.03978363764963368,0.018411859125672742
195,207,0.039903468189302044,0.018506278916060808
196,208,0.040031277618970414,0.01860069870644887
197,209,0.04004806906863879,0.018695118496836936
198,210,0.040109006219277335,0.018789538287225002
199,211,0.040231789551692126,0.018883958077613068
200,212,0.0403542773213605,0.018978377868001134
201,213,0.04054605252199905,0.0190727976583892
202,214,0.0406984376926376,0.019167217448777262
203,215,0.04077584110671534,0.019261637239165328
204,216,0.040967499696769875,0.019356057029553394
205,217,0.04111489917342198,0.01945047681994146
206,218,0.04125892328007409,0.019544896610329526
207,219,0.0414006189267262,0.01963931640071759
622,465,0.04153651288004528,0.019733736191105657
208,220,0.04154582927337832,0.01982815598149372
624,469,0.04158410740347575,0.019922575771881786
627,470,0.04164694032357288,0.02001699556226985
209,221,0.041694876230030424,0.020111415352657917
630,472,0.041711486637003345,0.020205835143045983
619,433,0.04174491569916576,0.02030025493343405
633,473,0.041778577785216195,0.02039467472382211
635,478,0.04181350857664666,0.020489094514210177
210,222,0.04183385038668254,0.020583514304598243
638,480,0.0418451201147438,0.02067793409498631
644,496,0.041876745052387115,0.020772353885374375
641,481,0.04190636517284093,0.02086677367576244
616,416,0.04192032788973529,0.020961193466150507
647,497,0.04194782347048425,0.02105561325653857
211,223,0.04198367191333465,0.021150033046926635
650,499,0.042015373918581386,0.0212444528373147
614,398,0.042041034969717124,0.021338872627702767
609,380,0.04206612683130919,0.021433292418090832
653,500,0.04208752395001185,0.0215277122084789
655,504,0.0420956969662247,0.021622131998866964
611,383,0.042111304329327366,0.021716551789255027
212,224,0.042130518619986755,0.021810971579643092
607,361,0.042180626419957686,0.021905391370031158
605,347,0.042204817405073654,0.021999811160419224
601,332,0.0422300653630373,0.02209423095080729
603,338,0.04225657568838881,0.022188650741195356
599,320,0.04231632692782266,0.022283070531583418
598,308,0.042362977664608024,0.022377490321971484
213,225,0.04243009109825712,0.02247191011235955
214,226,0.042555270635875365,0.022566329902747616
597,279,0.042607751296937224,0.02266074969313568
596,261,0.042802705579551376,0.022755169483523748
215,227,0.04284025293357137,0.022849589273911813
216,228,0.04304211304126736,0.022944009064299876
217,229,0.04321181508132188,0.02303842885468794
595,203,0.04333821839321392,0.023132848645076007
218,230,0.04336104415494013,0.023227268435464073
219,231,0.043537637694994656,0.02332168822585214
590,149,0.043673896050966374,0.023416108016240205
593,164,0.04368584267876757,0.02351052780662827
220,232,0.04369417659764677,0.023604947597016333
592,151,0.04374319394007938,0.0236993673874044
589,137,0.043767840177535905,0.023793787177792465
587,131,0.04376922537532305,0.02388820696818053
221,233,0.04395440569791713,0.023982626758568597
222,234,0.044083763471535385,0.024077046548956663
585,87,0.044252641181225925,0.024171466339344725
223,235,0.044414502609208165,0.02426588612973279
583,62,0.04451584898187441,0.024360305920120857
579,35,0.04462439576498754,0.024454725710508923
581,45,0.04464020707585623,0.02454914550089699
577,25,0.04467035159745218,0.024643565291285054
575,4,0.044819543749425914,0.02473798508167312
683,509,0.04505976834350022,0.024832404872061183
224,236,0.04709650455040437,0.02492682466244925
226,238,0.04721984561802262,0.025021244452837314
225,237,0.04722184370802262,0.02511566424322538
227,239,0.04732197572164088,0.025210084033613446
229,241,0.04744604647679748,0.025304503824001512
228,240,0.047468654516797486,0.025398923614389578
230,242,0.04762010501743604,0.02549334340477764
231,243,0.047762896222592645,0.025587763195165706
233,245,0.04780689102774925,0.025682182985553772
232,244,0.047882037877749244,0.025776602775941838
235,247,0.048002768328387804,0.025871022566329904
234,246,0.0480088868883878,0.02596544235671797
237,249,0.048108396299026364,0.026059862147106032
236,248,0.04817282175902636,0.026154281937494098
239,251,0.04821994545966492,0.026248701727882164
238,250,0.04827683542966492,0.02634312151827023
241,253,0.04833722473030347,0.026437541308658295
240,252,0.048410681860303464,0.02653196109904636
243,255,0.04849708008094202,0.026626380889434427
242,254,0.04850580028094202,0.02672080067982249
245,257,0.04864962595158058,0.026815220470210555
244,256,0.048661230191580584,0.02690964026059862
247,259,0.048799681442219134,0.027004060050986687
246,258,0.04882003384221914,0.027098479841374753
248,260,0.04898120629285769,0.02719289963176282
250,263,0.049131968361870094,0.027287319422150885
249,262,0.0491630557018701,0.027381739212538947
252,265,0.049179014602508654,0.027476159002927013
251,264,0.04919571950250865,0.02757057879331508
254,267,0.04919897630314721,0.027664998583703145
256,269,0.049361587793785765,0.02775941837409121
253,266,0.049364974603147205,0.027853838164479276
255,268,0.04938662626378577,0.02794825795486734
258,271,0.04942442730442432,0.028042677745255404
257,270,0.04948777600442431,0.02813709753564347
260,273,0.04956894693506287,0.028231517326031536
259,272,0.04959457141506287,0.028325937116419602
262,275,0.04972972124570143,0.028420356906807668
261,274,0.04973696798570143,0.028514776697195734
264,277,0.049890341556339986,0.028609196487583796
263,276,0.049924766996339985,0.028703616277971862
265,278,0.05007737423697854,0.028798036068359928
267,281,0.05019029244831756,0.028892455858747994
266,280,0.05021379606831756,0.02898687564913606
269,283,0.05030065202895612,0.029081295439524125
271,285,0.050326325528624496,0.029175715229912188
268,282,0.05034789667895612,0.029270135020300254
270,284,0.0504173451886245,0.02936455481068832
273,287,0.05049823637526305,0.029458974601076385
272,286,0.050518505385263056,0.02955339439146445
275,289,0.050560213031901606,0.029647814181852517
277,291,0.050604803355687025,0.029742233972240583
276,290,0.05060754397568703,0.029836653762628645
274,288,0.0506649587819016,0.02993107355301671
279,293,0.05074732437432559,0.030025493343404777
278,292,0.05077330467432559,0.030119913133792843
281,295,0.05092245315896413,0.03021433292418091
280,294,0.050944885138964134,0.030308752714568975
282,296,0.05106890553361624,0.03040317250495704
284,298,0.05120820740826835,0.030497592295345103
283,297,0.051219170188268354,0.03059201208573317
285,299,0.051396700548332924,0.030686431876121235
287,301,0.0518099127975773,0.0307808516665093
286,300,0.051818214637577305,0.030875271456897366
288,302,0.051984603817641875,0.030969691247285432
289,303,0.05223413114302891,0.031064111037673495
290,304,0.05234612350099108,0.03115853082806156
291,305,0.0524701743405052,0.031252950618449626
292,306,0.05256208960001933,0.03134737040883769
293,307,0.05268161488303019,0.03144179019922576
294,309,0.05287128633695911,0.031536209989613824
295,310,0.053126211757501006,0.03163062978000189
296,311,0.05325654655701513,0.031725049570389956
297,312,0.053316671746529244,0.03181946936077802
298,313,0.05339410976954011,0.03191388915116609
299,314,0.05350718360211984,0.032008308941554146
300,315,0.05361532977008201,0.03210272873194221
301,316,0.053743731018044166,0.03219714852233028
302,317,0.0538775293406239,0.032291568312718344
303,318,0.05398896587858606,0.03238598810310641
304,319,0.05412107259013557,0.032480407893494476
305,321,0.05438459240330333,0.03257482768388254
306,322,0.054519199715305985,0.03266924747427061
307,323,0.054600602036855496,0.03276366726465867
308,324,0.05467965483406958,0.03285808705504674
309,325,0.05470256721128366,0.032952506845434805
310,326,0.05483011372849775,0.03304692663582287
311,327,0.05495606283571183,0.03314134642621094
312,328,0.05508768094820407,0.033235766216599
313,329,0.05520868714541816,0.03333018600698706
314,330,0.05527163680791041,0.03342460579737513
315,331,0.055416321755124495,0.03351902558776319
316,333,0.0556594765250996,0.03361344537815126
317,334,0.055942287264805934,0.033707865168539325
318,335,0.05607772205729819,0.03380228495892739
319,336,0.05620304094451227,0.03389670474931546
320,337,0.056284106777907635,0.03399112453970352
321,339,0.056541364834439806,0.03408554433009159
322,340,0.05679807120988577,0.034179964120479654
323,341,0.05691546896328114,0.03427438391086772
324,342,0.057002864555773386,0.034368803701255786
325,343,0.05720568729871044,0.03446322349164385
326,344,0.05969521733391106,0.03455764328203191
327,345,0.059790242168896564,0.03465206307241998
328,346,0.05987734574725176,0.03474648286280804
329,348,0.06013629382765751,0.03484090265319611
330,349,0.060255524590149774,0.034935322443584174
331,350,0.06038671432215243,0.03502974223397224
332,351,0.06046570349415509,0.035124162024360306
333,352,0.06060010027211724,0.03521858181474837
334,353,0.06072884397007941,0.03531300160513644
335,354,0.06085766191265915,0.0354074213955245
336,355,0.060998201425238874,0.03550184118591257
337,356,0.06113420255678838,0.035596260976300635
338,357,0.061253103544750546,0.0356906807666887
339,358,0.06136965974733027,0.03578510055707676
340,359,0.06150741581887978,0.035879520347464826
341,360,0.06161717241042928,0.03597394013785289
342,362,0.0618741252620097,0.03606835992824096
343,363,0.06201779128355921,0.03616277971862902
344,364,0.06213498301510872,0.03625719950901709
345,365,0.062201336406658224,0.036351619299405155
346,366,0.062333389174620384,0.03644603908979322
347,367,0.06244235715413451,0.03654045888018129
348,368,0.06257711031714537,0.03663487867056935
349,369,0.06267717186015624,0.03672929846095742
350,370,0.06282148535316709,0.036823718251345484
351,371,0.06291574050617796,0.03691813804173355
352,372,0.06301018425409641,0.037012557832121616
353,373,0.0631097046083221,0.037106977622509675
354,374,0.06323721330165222,0.03720139741289774
355,375,0.06335605318062448,0.03729581720328581
356,376,0.06344801176368434,0.03739023699367387
357,377,0.06350895640759642,0.03748465678406194
358,378,0.06362091520362899,0.037579076574450004
359,379,0.06375096044029922,0.03767349636483807
360,381,0.06396341973033846,0.037767916155226136
361,382,0.06408331541857222,0.0378623359456142
362,384,0.06432559826465935,0.03795675573600227
363,385,0.06433132103897052,0.038051175526390334
364,386,0.06445288290128846,0.0381455953167784
365,387,0.06455600302088879,0.038240015107166465
366,388,0.06469182095724398,0.038334434897554524
367,389,0.06483163500359916,0.03842885468794259
368,390,0.06495789859995434,0.038523274478330656
369,391,0.06508878490630952,0.03861769426871872
928,528,0.06514988820108442,0.03871211405910679
925,515,0.06515015384599207,0.038806533849494854
