,Request Id,request_preemption_time,cdf
154,224,0.0,8.938946992044337e-05
155,225,0.0,0.00017877893984088674
156,226,0.0,0.0002681684097613301
157,227,0.0,0.0003575578796817735
158,228,0.0,0.00044694734960221686
159,231,0.0,0.0005363368195226602
160,232,0.0,0.0006257262894431036
161,233,0.0,0.000715115759363547
162,236,0.0,0.0008045052292839903
163,238,0.0,0.0008938946992044337
164,240,0.0,0.0009832841691248771
165,241,0.0,0.0010726736390453205
166,242,0.0,0.0011620631089657638
167,243,0.0,0.001251452578886207
168,245,0.0,0.0013408420488066506
169,246,0.0,0.001430231518727094
170,247,0.0,0.0015196209886475373
171,248,0.0,0.0016090104585679806
172,249,0.0,0.0016983999284884241
173,250,0.0,0.0017877893984088674
174,251,0.0,0.0018771788683293108
175,252,0.0,0.0019665683382497543
176,255,0.0,0.0020559578081701976
177,256,0.0,0.002145347278090641
178,257,0.0,0.0022347367480110843
179,258,0.0,0.0023241262179315276
180,259,0.0,0.002413515687851971
181,261,0.0,0.002502905157772414
182,262,0.0,0.002592294627692858
183,263,0.0,0.0026816840976133013
184,264,0.0,0.0027710735675337446
185,265,0.0,0.002860463037454188
186,268,0.0,0.0029498525073746312
187,269,0.0,0.0030392419772950745
188,270,0.0,0.003128631447215518
189,271,0.0,0.003218020917135961
190,272,0.0,0.003307410387056405
191,273,0.0,0.0033967998569768483
192,274,0.0,0.0034861893268972916
193,275,0.0,0.003575578796817735
194,277,0.0,0.003664968266738178
195,278,0.0,0.0037543577366586215
196,279,0.0,0.003843747206579065
197,280,0.0,0.003933136676499509
198,283,0.0,0.004022526146419952
199,287,0.0,0.004111915616340395
200,288,0.0,0.0042013050862608385
201,289,0.0,0.004290694556181282
202,290,0.0,0.004380084026101725
203,291,0.0,0.0044694734960221685
204,292,0.0,0.004558862965942612
205,293,0.0,0.004648252435863055
206,294,0.0,0.0047376419057834985
207,295,0.0,0.004827031375703942
208,297,0.0,0.004916420845624385
209,299,0.0,0.005005810315544828
210,301,0.0,0.005095199785465273
211,303,0.0,0.005184589255385716
212,305,0.0,0.005273978725306159
213,307,0.0,0.0053633681952266025
214,308,0.0,0.005452757665147046
215,309,0.0,0.005542147135067489
216,310,0.0,0.0056315366049879325
217,311,0.0,0.005720926074908376
218,312,0.0,0.005810315544828819
219,313,0.0,0.0058997050147492625
220,314,0.0,0.005989094484669706
221,315,0.0,0.006078483954590149
222,316,0.0,0.006167873424510592
223,317,0.0,0.006257262894431036
224,318,0.0,0.006346652364351479
225,319,0.0,0.006436041834271922
230,320,0.0,0.0065254313041923665
231,322,0.0,0.00661482077411281
232,323,0.0,0.006704210244033253
233,324,0.0,0.0067935997139536965
234,325,0.0,0.00688298918387414
235,326,0.0,0.006972378653794583
236,327,0.0,0.0070617681237150265
237,328,0.0,0.00715115759363547
238,329,0.0,0.007240547063555913
239,330,0.0,0.007329936533476356
240,331,0.0,0.0074193260033968
241,332,0.0,0.007508715473317243
242,333,0.0,0.007598104943237686
243,334,0.0,0.00768749441315813
244,335,0.0,0.007776883883078573
245,337,0.0,0.007866273352999017
246,338,0.0,0.00795566282291946
247,339,0.0,0.008045052292839904
248,341,0.0,0.008134441762760347
249,343,0.0,0.00822383123268079
250,344,0.0,0.008313220702601234
251,345,0.0,0.008402610172521677
252,346,0.0,0.00849199964244212
253,347,0.0,0.008581389112362564
254,349,0.0,0.008670778582283007
263,350,0.0,0.00876016805220345
264,352,0.0,0.008849557522123894
265,353,0.0,0.008938946992044337
266,355,0.0,0.00902833646196478
267,357,0.0,0.009117725931885224
268,360,0.0,0.009207115401805667
269,361,0.0,0.00929650487172611
270,362,0.0,0.009385894341646554
271,363,0.0,0.009475283811566997
272,364,0.0,0.00956467328148744
273,366,0.0,0.009654062751407884
274,368,0.0,0.009743452221328327
275,369,0.0,0.00983284169124877
276,370,0.0,0.009922231161169213
277,371,0.0,0.010011620631089657
278,373,0.0,0.010101010101010102
279,376,0.0,0.010190399570930545
280,379,0.0,0.010279789040850989
281,380,0.0,0.010369178510771432
282,381,0.0,0.010458567980691875
283,383,0.0,0.010547957450612318
284,385,0.0,0.010637346920532762
285,386,0.0,0.010726736390453205
286,387,0.0,0.010816125860373648
287,388,0.0,0.010905515330294092
296,389,0.0,0.010994904800214535
297,390,0.0,0.011084294270134978
298,391,0.0,0.011173683740055422
299,392,0.0,0.011263073209975865
300,393,0.0,0.011352462679896308
301,394,0.0,0.011441852149816752
302,395,0.0,0.011531241619737195
303,396,0.0,0.011620631089657638
304,397,0.0,0.011710020559578082
305,398,0.0,0.011799410029498525
306,400,0.0,0.011888799499418968
307,401,0.0,0.011978188969339412
308,402,0.0,0.012067578439259855
309,404,0.0,0.012156967909180298
310,405,0.0,0.012246357379100741
311,406,0.0,0.012335746849021185
312,407,0.0,0.012425136318941628
313,408,0.0,0.012514525788862071
314,409,0.0,0.012603915258782515
315,411,0.0,0.012693304728702958
316,412,0.0,0.012782694198623401
317,413,0.0,0.012872083668543845
318,414,0.0,0.012961473138464288
319,415,0.0,0.013050862608384733
320,416,0.0,0.013140252078305176
321,418,0.0,0.01322964154822562
333,419,0.0,0.013319031018146063
334,422,0.0,0.013408420488066506
335,423,0.0,0.01349780995798695
336,424,0.0,0.013587199427907393
337,426,0.0,0.013676588897827836
338,427,0.0,0.01376597836774828
339,429,0.0,0.013855367837668723
340,430,0.0,0.013944757307589166
341,432,0.0,0.01403414677750961
342,434,0.0,0.014123536247430053
343,435,0.0,0.014212925717350496
344,438,0.0,0.01430231518727094
345,441,0.0,0.014391704657191383
346,442,0.0,0.014481094127111826
347,443,0.0,0.01457048359703227
348,445,0.0,0.014659873066952713
349,447,0.0,0.014749262536873156
350,449,0.0,0.0148386520067936
351,450,0.0,0.014928041476714043
352,451,0.0,0.015017430946634486
353,453,0.0,0.01510682041655493
354,454,0.0,0.015196209886475373
355,455,0.0,0.015285599356395816
356,457,0.0,0.01537498882631626
357,458,0.0,0.015464378296236703
358,460,0.0,0.015553767766157146
359,461,0.0,0.01564315723607759
360,462,0.0,0.015732546705998034
372,463,0.0,0.015821936175918476
373,464,0.0,0.01591132564583892
374,467,0.0,0.016000715115759363
375,468,0.0,0.016090104585679808
376,469,0.0,0.01617949405560025
377,474,0.0,0.016268883525520694
378,475,0.0,0.016358272995441136
379,476,0.0,0.01644766246536158
380,477,0.0,0.016537051935282022
381,479,0.0,0.016626441405202468
382,480,0.0,0.01671583087512291
383,481,0.0,0.016805220345043354
384,482,0.0,0.016894609814963796
385,483,0.0,0.01698399928488424
386,484,0.0,0.017073388754804682
387,485,0.0,0.017162778224725127
388,486,0.0,0.01725216769464557
389,487,0.0,0.017341557164566014
390,488,0.0,0.01743094663448646
391,489,0.0,0.0175203361044069
392,490,0.0,0.017609725574327346
393,492,0.0,0.017699115044247787
394,493,0.0,0.017788504514168232
395,494,0.0,0.017877893984088674
396,495,0.0,0.01796728345400912
397,496,0.0,0.01805667292392956
398,497,0.0,0.018146062393850006
399,498,0.0,0.018235451863770447
408,501,0.0,0.018324841333690892
409,502,0.0,0.018414230803611334
410,504,0.0,0.01850362027353178
411,505,0.0,0.01859300974345222
412,506,0.0,0.018682399213372666
413,507,0.0,0.018771788683293107
414,508,0.0,0.018861178153213552
415,509,0.0,0.018950567623133994
416,510,0.0,0.01903995709305444
417,511,0.0,0.01912934656297488
418,512,0.0,0.019218736032895326
419,513,0.0,0.019308125502815767
420,514,0.0,0.019397514972736212
421,515,0.0,0.019486904442656654
422,516,0.0,0.0195762939125771
423,517,0.0,0.01966568338249754
424,518,0.0,0.019755072852417985
425,519,0.0,0.019844462322338427
426,520,0.0,0.019933851792258872
427,521,0.0,0.020023241262179314
428,522,0.0,0.02011263073209976
429,523,0.0,0.020202020202020204
430,524,0.0,0.020291409671940645
431,525,0.0,0.02038079914186109
432,526,0.0,0.020470188611781532
433,527,0.0,0.020559578081701977
434,528,0.0,0.02064896755162242
435,529,0.0,0.020738357021542864
436,530,0.0,0.020827746491463305
448,532,0.0,0.02091713596138375
449,533,0.0,0.021006525431304192
450,534,0.0,0.021095914901224637
451,535,0.0,0.02118530437114508
452,536,0.0,0.021274693841065524
453,537,0.0,0.021364083310985965
454,538,0.0,0.02145347278090641
455,539,0.0,0.021542862250826852
456,540,0.0,0.021632251720747297
457,541,0.0,0.02172164119066774
458,542,0.0,0.021811030660588183
459,543,0.0,0.021900420130508625
460,544,0.0,0.02198980960042907
461,545,0.0,0.02207919907034951
462,546,0.0,0.022168588540269957
463,548,0.0,0.0222579780101904
464,549,0.0,0.022347367480110843
465,550,0.0,0.022436756950031285
466,551,0.0,0.02252614641995173
467,552,0.0,0.02261553588987217
468,553,0.0,0.022704925359792617
469,554,0.0,0.022794314829713058
470,556,0.0,0.022883704299633503
471,557,0.0,0.022973093769553945
472,558,0.0,0.02306248323947439
473,559,0.0,0.023151872709394835
474,560,0.0,0.023241262179315277
475,561,0.0,0.02333065164923572
476,562,0.0,0.023420041119156163
486,564,0.0,0.023509430589076608
487,566,0.0,0.02359882005899705
488,567,0.0,0.023688209528917495
489,568,0.0,0.023777598998837936
490,569,0.0,0.02386698846875838
491,570,0.0,0.023956377938678823
492,571,0.0,0.024045767408599268
493,572,0.0,0.02413515687851971
494,574,0.0,0.024224546348440155
495,575,0.0,0.024313935818360596
496,576,0.0,0.02440332528828104
497,577,0.0,0.024492714758201483
498,579,0.0,0.024582104228121928
499,580,0.0,0.02467149369804237
500,581,0.0,0.024760883167962815
501,582,0.0,0.024850272637883256
502,583,0.0,0.0249396621078037
503,584,0.0,0.025029051577724143
504,586,0.0,0.025118441047644588
505,588,0.0,0.02520783051756503
506,589,0.0,0.025297219987485475
507,591,0.0,0.025386609457405916
508,592,0.0,0.02547599892732636
509,593,0.0,0.025565388397246803
510,594,0.0,0.025654777867167248
511,597,0.0,0.02574416733708769
512,599,0.0,0.025833556807008135
513,603,0.0,0.025922946276928576
514,604,0.0,0.02601233574684902
515,605,0.0,0.026101725216769466
516,229,0.0,0.026191114686689908
517,230,0.0,0.026280504156610353
518,234,0.0,0.026369893626530794
519,235,0.0,0.02645928309645124
520,237,0.0,0.02654867256637168
521,239,0.0,0.026638062036292126
522,244,0.0,0.026727451506212568
523,253,0.0,0.026816840976133013
524,254,0.0,0.026906230446053454
525,606,0.0,0.0269956199159739
526,607,0.0,0.02708500938589434
527,608,0.0,0.027174398855814786
528,610,0.0,0.027263788325735228
529,612,0.0,0.027353177795655673
530,615,0.0,0.027442567265576114
531,616,0.0,0.02753195673549656
532,617,0.0,0.027621346205417
533,618,0.0,0.027710735675337446
534,619,0.0,0.027800125145257887
535,620,0.0,0.027889514615178333
536,622,0.0,0.027978904085098774
537,623,0.0,0.02806829355501922
538,624,0.0,0.02815768302493966
539,625,0.0,0.028247072494860106
540,626,0.0,0.028336461964780547
541,627,0.0,0.028425851434700992
542,629,0.0,0.028515240904621434
543,630,0.0,0.02860463037454188
544,631,0.0,0.02869401984446232
545,632,0.0,0.028783409314382766
546,633,0.0,0.02887279878430321
547,634,0.0,0.028962188254223652
548,635,0.0,0.029051577724144097
549,636,0.0,0.02914096719406454
550,637,0.0,0.029230356663984984
551,638,0.0,0.029319746133905426
552,640,0.0,0.02940913560382587
553,641,0.0,0.029498525073746312
554,642,0.0,0.029587914543666757
555,260,0.0,0.0296773040135872
556,266,0.0,0.029766693483507644
557,267,0.0,0.029856082953428086
558,276,0.0,0.02994547242334853
559,281,0.0,0.030034861893268972
560,282,0.0,0.030124251363189417
561,284,0.0,0.03021364083310986
562,285,0.0,0.030303030303030304
563,286,0.0,0.030392419772950745
564,643,0.0,0.03048180924287119
565,644,0.0,0.030571198712791632
566,645,0.0,0.030660588182712077
567,647,0.0,0.03074997765263252
568,648,0.0,0.030839367122552964
569,649,0.0,0.030928756592473405
570,650,0.0,0.03101814606239385
571,651,0.0,0.031107535532314292
572,652,0.0,0.031196925002234737
573,653,0.0,0.03128631447215518
574,655,0.0,0.031375703942075624
575,657,0.0,0.03146509341199607
576,658,0.0,0.03155448288191651
577,659,0.0,0.03164387235183695
578,660,0.0,0.0317332618217574
579,661,0.0,0.03182265129167784
580,662,0.0,0.03191204076159829
581,663,0.0,0.032001430231518725
582,665,0.0,0.03209081970143917
583,666,0.0,0.032180209171359615
584,667,0.0,0.03226959864128006
585,668,0.0,0.0323589881112005
586,669,0.0,0.032448377581120944
587,670,0.0,0.03253776705104139
588,671,0.0,0.032627156520961834
589,672,0.0,0.03271654599088227
590,674,0.0,0.03280593546080272
591,296,0.0,0.03289532493072316
592,298,0.0,0.03298471440064361
593,300,0.0,0.033074103870564045
594,302,0.0,0.03316349334048449
595,304,0.0,0.033252882810404935
596,306,0.0,0.03334227228032538
597,321,0.0,0.03343166175024582
598,336,0.0,0.03352105122016626
599,340,0.0,0.03361044069008671
600,342,0.0,0.03369983016000715
601,348,0.0,0.03378921962992759
602,351,0.0,0.03387860909984804
603,354,0.0,0.03396799856976848
604,356,0.0,0.03405738803968893
605,358,0.0,0.034146777509609365
606,359,0.0,0.03423616697952981
607,365,0.0,0.034325556449450255
608,367,0.0,0.0344149459193707
609,372,0.0,0.03450433538929114
610,374,0.0,0.03459372485921158
611,375,0.0,0.03468311432913203
612,377,0.0,0.03477250379905247
613,378,0.0,0.03486189326897292
614,382,0.0,0.034951282738893356
615,384,0.0,0.0350406722088138
616,399,0.0,0.035130061678734247
617,403,0.0,0.03521945114865469
618,675,0.0,0.03530884061857513
619,676,0.0,0.035398230088495575
620,678,0.0,0.03548761955841602
621,679,0.0,0.035577009028336465
622,680,0.0,0.0356663984982569
623,681,0.0,0.03575578796817735
624,682,0.0,0.03584517743809779
625,410,0.0,0.03593456690801824
626,417,0.0,0.036023956377938676
627,420,0.0,0.03611334584785912
628,421,0.0,0.036202735317779566
629,425,0.0,0.03629212478770001
630,428,0.0,0.03638151425762045
631,431,0.0,0.036470903727540895
632,433,0.0,0.03656029319746134
633,436,0.0,0.036649682667381785
634,437,0.0,0.03673907213730222
635,683,0.0,0.03682846160722267
636,684,0.0,0.03691785107714311
637,685,0.0,0.03700724054706356
638,686,0.0,0.037096630016983996
639,687,0.0,0.03718601948690444
640,688,0.0,0.037275408956824886
641,689,0.0,0.03736479842674533
642,690,0.0,0.03745418789666577
643,692,0.0,0.037543577366586214
644,693,0.0,0.03763296683650666
645,694,0.0,0.037722356306427104
646,695,0.0,0.03781174577634755
647,696,0.0,0.03790113524626799
648,697,0.0,0.03799052471618843
649,698,0.0,0.03807991418610888
650,699,0.0,0.03816930365602932
651,700,0.0,0.03825869312594976
652,701,0.0,0.038348082595870206
653,439,0.0,0.03843747206579065
654,440,0.0,0.038526861535711096
655,444,0.0,0.038616251005631534
656,446,0.0,0.03870564047555198
657,448,0.0,0.038795029945472424
658,452,0.0,0.03888441941539287
659,456,0.0,0.03897380888531331
660,459,0.0,0.03906319835523375
661,465,0.0,0.0391525878251542
662,703,0.0,0.03924197729507464
663,705,0.0,0.03933136676499508
664,706,0.0,0.039420756234915526
665,708,0.0,0.03951014570483597
666,709,0.0,0.039599535174756416
667,712,0.0,0.039688924644676854
668,713,0.0,0.0397783141145973
669,714,0.0,0.039867703584517744
670,715,0.0,0.03995709305443819
671,716,0.0,0.04004648252435863
672,717,0.0,0.04013587199427907
673,718,0.0,0.04022526146419952
674,720,0.0,0.04031465093411996
675,721,0.0,0.04040404040404041
676,722,0.0,0.040493429873960846
677,723,0.0,0.04058281934388129
678,725,0.0,0.040672208813801736
679,726,0.0,0.04076159828372218
680,466,0.0,0.04085098775364262
681,470,0.0,0.040940377223563064
682,471,0.0,0.04102976669348351
683,472,0.0,0.041119156163403954
684,473,0.0,0.04120854563332439
685,478,0.0,0.04129793510324484
686,491,0.0,0.04138732457316528
687,499,0.0,0.04147671404308573
688,500,0.0,0.041566103513006165
689,727,0.0,0.04165549298292661
690,728,0.0,0.041744882452847056
691,729,0.0,0.0418342719227675
692,730,0.0,0.04192366139268794
693,731,0.0,0.042013050862608384
694,732,0.0,0.04210244033252883
695,733,0.0,0.042191829802449274
696,734,0.0,0.04228121927236971
697,735,0.0,0.04237060874229016
698,736,0.0,0.0424599982122106
699,739,0.0,0.04254938768213105
700,741,0.0,0.042638777152051485
701,742,0.0,0.04272816662197193
702,743,0.0,0.042817556091892375
703,744,0.0,0.04290694556181282
704,745,0.0,0.04299633503173326
705,746,0.0,0.043085724501653704
706,503,0.0,0.04317511397157415
707,531,0.0,0.043264503441494594
708,547,0.0,0.04335389291141504
709,555,0.0,0.04344328238133548
710,563,0.0,0.04353267185125592
711,565,0.0,0.04362206132117637
712,573,0.0,0.04371145079109681
713,578,0.0,0.04380084026101725
714,585,0.0,0.043890229730937695
715,747,0.0,0.04397961920085814
716,748,0.0,0.044069008670778585
717,749,0.0,0.04415839814069902
718,750,0.0,0.04424778761061947
719,751,0.0,0.04433717708053991
720,752,0.0,0.04442656655046036
721,753,0.0,0.0445159560203808
722,755,0.0,0.04460534549030124
723,756,0.0,0.04469473496022169
724,757,0.0,0.04478412443014213
725,758,0.0,0.04487351390006257
726,759,0.0,0.044962903369983015
727,760,0.0,0.04505229283990346
728,761,0.0,0.045141682309823905
729,762,0.0,0.04523107177974434
730,763,0.0,0.04532046124966479
731,764,0.0,0.04540985071958523
732,765,0.0,0.04549924018950568
733,587,0.0,0.045588629659426116
734,590,0.0,0.04567801912934656
735,595,0.0,0.04576740859926701
736,596,0.0,0.04585679806918745
737,598,0.0,0.04594618753910789
738,600,0.0,0.046035577009028335
739,601,0.0,0.04612496647894878
740,602,0.0,0.046214355948869225
741,766,0.0,0.04630374541878967
742,767,0.0,0.04639313488871011
743,768,0.0,0.04648252435863055
744,769,0.0,0.046571913828551
745,770,0.0,0.04666130329847144
746,771,0.0,0.04675069276839188
747,772,0.0,0.046840082238312326
748,773,0.0,0.04692947170823277
749,774,0.0,0.047018861178153216
750,776,0.0,0.047108250648073655
751,777,0.0,0.0471976401179941
752,778,0.0,0.047287029587914545
753,779,0.0,0.04737641905783499
754,780,0.0,0.04746580852775543
755,781,0.0,0.04755519799767587
756,783,0.0,0.04764458746759632
757,784,0.0,0.04773397693751676
758,785,0.0,0.0478233664074372
759,609,0.0,0.047912755877357646
760,611,0.0,0.04800214534727809
761,613,0.0,0.048091534817198536
762,614,0.0,0.048180924287118974
763,621,0.0,0.04827031375703942
764,628,0.0,0.048359703226959865
765,639,0.0,0.04844909269688031
766,646,0.0,0.04853848216680075
767,786,0.0,0.04862787163672119
768,787,0.0,0.04871726110664164
769,788,0.0,0.04880665057656208
770,790,0.0,0.04889604004648252
771,791,0.0,0.048985429516402966
772,792,0.0,0.04907481898632341
773,793,0.0,0.049164208456243856
774,794,0.0,0.0492535979261643
775,795,0.0,0.04934298739608474
776,796,0.0,0.049432376866005184
777,797,0.0,0.04952176633592563
778,798,0.0,0.049611155805846074
779,799,0.0,0.04970054527576651
780,800,0.0,0.04978993474568696
781,802,0.0,0.0498793242156074
782,803,0.0,0.04996871368552785
783,804,0.0,0.050058103155448286
784,805,0.0,0.05014749262536873
785,654,0.0,0.050236882095289176
786,656,0.0,0.05032627156520962
787,664,0.0,0.05041566103513006
788,673,0.0,0.050505050505050504
789,806,0.0,0.05059443997497095
790,807,0.0,0.050683829444891394
791,808,0.0,0.05077321891481183
792,809,0.0,0.05086260838473228
793,811,0.0,0.05095199785465272
794,812,0.0,0.05104138732457317
795,813,0.0,0.051130776794493606
796,814,0.0,0.05122016626441405
797,815,0.0,0.051309555734334496
798,816,0.0,0.05139894520425494
799,817,0.0,0.05148833467417538
800,818,0.0,0.051577724144095824
801,819,0.0,0.05166711361401627
802,820,0.0,0.051756503083936714
803,821,0.0,0.05184589255385715
804,822,0.0,0.0519352820237776
805,823,0.0,0.05202467149369804
806,824,0.0,0.05211406096361849
807,677,0.0,0.05220345043353893
808,691,0.0,0.05229283990345937
809,702,0.0,0.052382229373379816
810,704,0.0,0.05247161884330026
811,707,0.0,0.052561008313220706
812,710,0.0,0.052650397783141144
813,711,0.0,0.05273978725306159
814,719,0.0,0.052829176722982034
815,724,0.0,0.05291856619290248
816,825,0.0,0.05300795566282292
817,826,0.0,0.05309734513274336
818,828,0.0,0.05318673460266381
819,829,0.0,0.05327612407258425
820,830,0.0,0.05336551354250469
821,834,0.0,0.053454903012425135
822,835,0.0,0.05354429248234558
823,836,0.0,0.053633681952266025
824,837,0.0,0.053723071422186464
825,839,0.0,0.05381246089210691
826,842,0.0,0.053901850362027354
827,843,0.0,0.0539912398319478
828,844,0.0,0.05408062930186824
829,845,0.0,0.05417001877178868
830,846,0.0,0.05425940824170913
831,847,0.0,0.05434879771162957
832,848,0.0,0.05443818718155001
833,849,0.0,0.054527576651470455
834,737,0.0,0.0546169661213909
835,738,0.0,0.054706355591311345
