,Request Id,request_model_execution_time,cdf
9567,8360,0.30951808874244363,8.938946992044337e-05
9568,8361,0.30951808874244363,0.00017877893984088674
9569,8362,0.30951808874244363,0.0002681684097613301
9570,8363,0.30951808874244363,0.0003575578796817735
9571,8364,0.30951808874244363,0.00044694734960221686
9572,8365,0.30951808874244363,0.0005363368195226602
9573,8366,0.30951808874244363,0.0006257262894431036
9574,8367,0.30951808874244363,0.000715115759363547
9575,8368,0.30951808874244363,0.0008045052292839903
9576,8369,0.30951808874244363,0.0008938946992044337
9577,8370,0.30951808874244363,0.0009832841691248771
9578,8371,0.30951808874244363,0.0010726736390453205
9579,8372,0.30951808874244363,0.0011620631089657638
9580,8373,0.30951808874244363,0.001251452578886207
9581,8374,0.30951808874244363,0.0013408420488066506
9582,8375,0.30951808874244363,0.001430231518727094
9583,8376,0.30951808874244363,0.0015196209886475373
9584,8377,0.30951808874244363,0.0016090104585679806
9585,8378,0.30951808874244363,0.0016983999284884241
9586,8380,0.30951808874244363,0.0017877893984088674
9587,8381,0.30951808874244363,0.0018771788683293108
9588,8382,0.30951808874244363,0.0019665683382497543
9589,8383,0.30951808874244363,0.0020559578081701976
9590,8385,0.30951808874244363,0.002145347278090641
9591,8388,0.30951808874244363,0.0022347367480110843
9592,8389,0.30951808874244363,0.0023241262179315276
9593,8391,0.30951808874244363,0.002413515687851971
9594,8393,0.30951808874244363,0.002502905157772414
9595,8396,0.30951808874244363,0.002592294627692858
9596,8397,0.30951808874244363,0.0026816840976133013
9597,8398,0.30951808874244363,0.0027710735675337446
9598,8401,0.30951808874244363,0.002860463037454188
9599,8402,0.30951808874244363,0.0029498525073746312
9600,8404,0.30951808874244363,0.0030392419772950745
9601,8405,0.30951808874244363,0.003128631447215518
9602,8406,0.30951808874244363,0.003218020917135961
9603,8407,0.30951808874244363,0.003307410387056405
9604,8408,0.30951808874244363,0.0033967998569768483
9605,8409,0.30951808874244363,0.0034861893268972916
9606,8410,0.30951808874244363,0.003575578796817735
9607,8411,0.30951808874244363,0.003664968266738178
9608,8412,0.30951808874244363,0.0037543577366586215
9609,8413,0.30951808874244363,0.003843747206579065
9610,8414,0.30951808874244363,0.003933136676499509
9611,8415,0.30951808874244363,0.004022526146419952
9612,8416,0.30951808874244363,0.004111915616340395
9613,8417,0.30951808874244363,0.0042013050862608385
9614,8418,0.30951808874244363,0.004290694556181282
9615,8419,0.30951808874244363,0.004380084026101725
9616,8420,0.30951808874244363,0.0044694734960221685
9617,8421,0.30951808874244363,0.004558862965942612
9618,8422,0.30951808874244363,0.004648252435863055
9619,8423,0.30951808874244363,0.0047376419057834985
9620,8424,0.30951808874244363,0.004827031375703942
9621,8425,0.30951808874244363,0.004916420845624385
9622,8426,0.30951808874244363,0.005005810315544828
9623,8427,0.30951808874244363,0.005095199785465273
9624,8428,0.30951808874244363,0.005184589255385716
9625,8429,0.30951808874244363,0.005273978725306159
9626,8430,0.30951808874244363,0.0053633681952266025
9627,8431,0.30951808874244363,0.005452757665147046
9628,8432,0.30951808874244363,0.005542147135067489
9629,8433,0.30951808874244363,0.0056315366049879325
9630,8434,0.30951808874244363,0.005720926074908376
9631,8435,0.30951808874244363,0.005810315544828819
9632,8436,0.30951808874244363,0.0058997050147492625
9633,8437,0.30951808874244363,0.005989094484669706
9634,8438,0.30951808874244363,0.006078483954590149
9635,8439,0.30951808874244363,0.006167873424510592
9636,8440,0.30951808874244363,0.006257262894431036
9637,8441,0.30951808874244363,0.006346652364351479
9638,8443,0.30951808874244363,0.006436041834271922
9639,8444,0.30951808874244363,0.0065254313041923665
9640,8445,0.30951808874244363,0.00661482077411281
9641,8446,0.30951808874244363,0.006704210244033253
9642,8447,0.30951808874244363,0.0067935997139536965
9643,8448,0.30951808874244363,0.00688298918387414
9644,8449,0.30951808874244363,0.006972378653794583
9645,8450,0.30951808874244363,0.0070617681237150265
9646,8451,0.30951808874244363,0.00715115759363547
9647,8453,0.30951808874244363,0.007240547063555913
9648,8454,0.30951808874244363,0.007329936533476356
9649,8455,0.30951808874244363,0.0074193260033968
9650,8456,0.30951808874244363,0.007508715473317243
9651,8457,0.30951808874244363,0.007598104943237686
9652,8458,0.30951808874244363,0.00768749441315813
9653,8459,0.30951808874244363,0.007776883883078573
9654,8460,0.30951808874244363,0.007866273352999017
9655,8461,0.30951808874244363,0.00795566282291946
9656,8462,0.30951808874244363,0.008045052292839904
9657,8464,0.30951808874244363,0.008134441762760347
9658,8465,0.30951808874244363,0.00822383123268079
9659,8466,0.30951808874244363,0.008313220702601234
9660,8468,0.30951808874244363,0.008402610172521677
9661,8469,0.30951808874244363,0.00849199964244212
9662,8472,0.30951808874244363,0.008581389112362564
9663,8473,0.30951808874244363,0.008670778582283007
9664,8474,0.30951808874244363,0.00876016805220345
9665,8475,0.30951808874244363,0.008849557522123894
9666,8476,0.30951808874244363,0.008938946992044337
9667,8477,0.30951808874244363,0.00902833646196478
9668,8478,0.30951808874244363,0.009117725931885224
9669,8479,0.30951808874244363,0.009207115401805667
9670,8480,0.30951808874244363,0.00929650487172611
9671,8481,0.30951808874244363,0.009385894341646554
9672,8482,0.30951808874244363,0.009475283811566997
9673,8483,0.30951808874244363,0.00956467328148744
9674,8484,0.30951808874244363,0.009654062751407884
9675,8485,0.30951808874244363,0.009743452221328327
9676,8486,0.30951808874244363,0.00983284169124877
9677,8489,0.30951808874244363,0.009922231161169213
9678,8490,0.30951808874244363,0.010011620631089657
9679,8491,0.30951808874244363,0.010101010101010102
9680,8492,0.30951808874244363,0.010190399570930545
9681,8493,0.30951808874244363,0.010279789040850989
9682,8494,0.30951808874244363,0.010369178510771432
9683,8496,0.30951808874244363,0.010458567980691875
9684,8497,0.30951808874244363,0.010547957450612318
9685,8499,0.30951808874244363,0.010637346920532762
9686,8500,0.30951808874244363,0.010726736390453205
9687,8501,0.30951808874244363,0.010816125860373648
9688,8502,0.30951808874244363,0.010905515330294092
9689,8503,0.30951808874244363,0.010994904800214535
9690,8504,0.30951808874244363,0.011084294270134978
9691,8505,0.30951808874244363,0.011173683740055422
9692,8506,0.30951808874244363,0.011263073209975865
9693,8507,0.30951808874244363,0.011352462679896308
9694,8510,0.30951808874244363,0.011441852149816752
9695,8511,0.30951808874244363,0.011531241619737195
9696,8512,0.30951808874244363,0.011620631089657638
9697,8514,0.30951808874244363,0.011710020559578082
9698,8515,0.30951808874244363,0.011799410029498525
9699,8516,0.30951808874244363,0.011888799499418968
9700,8517,0.30951808874244363,0.011978188969339412
9701,8518,0.30951808874244363,0.012067578439259855
9702,8521,0.30951808874244363,0.012156967909180298
9703,8522,0.30951808874244363,0.012246357379100741
9704,8523,0.30951808874244363,0.012335746849021185
9705,8524,0.30951808874244363,0.012425136318941628
9706,8526,0.30951808874244363,0.012514525788862071
9707,8527,0.30951808874244363,0.012603915258782515
9708,8528,0.30951808874244363,0.012693304728702958
9709,8530,0.30951808874244363,0.012782694198623401
9710,8531,0.30951808874244363,0.012872083668543845
9711,8532,0.30951808874244363,0.012961473138464288
9712,8533,0.30951808874244363,0.013050862608384733
9713,8534,0.30951808874244363,0.013140252078305176
9714,8535,0.30951808874244363,0.01322964154822562
9715,8536,0.30951808874244363,0.013319031018146063
9716,8537,0.30951808874244363,0.013408420488066506
9717,8538,0.30951808874244363,0.01349780995798695
9718,8539,0.30951808874244363,0.013587199427907393
9719,8541,0.30951808874244363,0.013676588897827836
9720,8542,0.30951808874244363,0.01376597836774828
9721,8543,0.30951808874244363,0.013855367837668723
9722,8544,0.30951808874244363,0.013944757307589166
9723,8548,0.30951808874244363,0.01403414677750961
9724,8549,0.30951808874244363,0.014123536247430053
9725,8550,0.30951808874244363,0.014212925717350496
9726,8551,0.30951808874244363,0.01430231518727094
9727,8552,0.30951808874244363,0.014391704657191383
9728,8555,0.30951808874244363,0.014481094127111826
9729,8557,0.30951808874244363,0.01457048359703227
9730,8558,0.30951808874244363,0.014659873066952713
9731,8559,0.30951808874244363,0.014749262536873156
9732,8560,0.30951808874244363,0.0148386520067936
9733,8561,0.30951808874244363,0.014928041476714043
9734,8563,0.30951808874244363,0.015017430946634486
9735,8564,0.30951808874244363,0.01510682041655493
9736,8565,0.30951808874244363,0.015196209886475373
9737,8566,0.30951808874244363,0.015285599356395816
9738,8567,0.30951808874244363,0.01537498882631626
9739,8568,0.30951808874244363,0.015464378296236703
9740,8569,0.30951808874244363,0.015553767766157146
9741,8570,0.30951808874244363,0.01564315723607759
9742,8571,0.30951808874244363,0.015732546705998034
9743,8572,0.30951808874244363,0.015821936175918476
9744,8573,0.30951808874244363,0.01591132564583892
9745,8576,0.30951808874244363,0.016000715115759363
9746,8577,0.30951808874244363,0.016090104585679808
9747,8578,0.30951808874244363,0.01617949405560025
9748,8580,0.30951808874244363,0.016268883525520694
9749,8581,0.30951808874244363,0.016358272995441136
9750,8582,0.30951808874244363,0.01644766246536158
9751,8583,0.30951808874244363,0.016537051935282022
9752,8584,0.30951808874244363,0.016626441405202468
9753,8585,0.30951808874244363,0.01671583087512291
9754,8586,0.30951808874244363,0.016805220345043354
9755,8587,0.30951808874244363,0.016894609814963796
9756,8588,0.30951808874244363,0.01698399928488424
9757,8590,0.30951808874244363,0.017073388754804682
9758,8592,0.30951808874244363,0.017162778224725127
9759,8593,0.30951808874244363,0.01725216769464557
9760,8594,0.30951808874244363,0.017341557164566014
9761,8595,0.30951808874244363,0.01743094663448646
9762,8596,0.30951808874244363,0.0175203361044069
9763,8597,0.30951808874244363,0.017609725574327346
9764,8599,0.30951808874244363,0.017699115044247787
9765,8600,0.30951808874244363,0.017788504514168232
9766,8601,0.30951808874244363,0.017877893984088674
9767,8602,0.30951808874244363,0.01796728345400912
9768,8603,0.30951808874244363,0.01805667292392956
9769,8604,0.30951808874244363,0.018146062393850006
9770,8605,0.30951808874244363,0.018235451863770447
9771,8606,0.30951808874244363,0.018324841333690892
9772,8608,0.30951808874244363,0.018414230803611334
9773,8609,0.30951808874244363,0.01850362027353178
9774,8610,0.30951808874244363,0.01859300974345222
9775,8611,0.30951808874244363,0.018682399213372666
9776,8615,0.30951808874244363,0.018771788683293107
9777,8619,0.30951808874244363,0.018861178153213552
9778,8623,0.30951808874244363,0.018950567623133994
9779,8624,0.30951808874244363,0.01903995709305444
9780,8625,0.30951808874244363,0.01912934656297488
9781,8626,0.30951808874244363,0.019218736032895326
9782,8627,0.30951808874244363,0.019308125502815767
9783,8629,0.30951808874244363,0.019397514972736212
9784,8630,0.30951808874244363,0.019486904442656654
9785,8631,0.30951808874244363,0.0195762939125771
9786,8632,0.30951808874244363,0.01966568338249754
9787,8634,0.30951808874244363,0.019755072852417985
9788,8635,0.30951808874244363,0.019844462322338427
9789,8636,0.30951808874244363,0.019933851792258872
9790,8637,0.30951808874244363,0.020023241262179314
9791,8638,0.30951808874244363,0.02011263073209976
9792,8639,0.30951808874244363,0.020202020202020204
9793,8640,0.30951808874244363,0.020291409671940645
9794,8641,0.30951808874244363,0.02038079914186109
9795,8642,0.30951808874244363,0.020470188611781532
9796,8643,0.30951808874244363,0.020559578081701977
9797,8644,0.30951808874244363,0.02064896755162242
9798,8646,0.30951808874244363,0.020738357021542864
9799,8647,0.30951808874244363,0.020827746491463305
9800,8648,0.30951808874244363,0.02091713596138375
9801,8649,0.30951808874244363,0.021006525431304192
9802,8650,0.30951808874244363,0.021095914901224637
9803,8651,0.30951808874244363,0.02118530437114508
9804,8652,0.30951808874244363,0.021274693841065524
9805,8653,0.30951808874244363,0.021364083310985965
9806,8654,0.30951808874244363,0.02145347278090641
9807,8656,0.30951808874244363,0.021542862250826852
9808,8657,0.30951808874244363,0.021632251720747297
9809,8658,0.30951808874244363,0.02172164119066774
9810,8660,0.30951808874244363,0.021811030660588183
9811,8663,0.30951808874244363,0.021900420130508625
9812,8664,0.30951808874244363,0.02198980960042907
9813,8665,0.30951808874244363,0.02207919907034951
9814,8666,0.30951808874244363,0.022168588540269957
9815,8667,0.30951808874244363,0.0222579780101904
9816,8668,0.30951808874244363,0.022347367480110843
9817,8669,0.30951808874244363,0.022436756950031285
9818,8671,0.30951808874244363,0.02252614641995173
9819,8673,0.30951808874244363,0.02261553588987217
9820,8674,0.30951808874244363,0.022704925359792617
9821,8675,0.30951808874244363,0.022794314829713058
9822,8676,0.30951808874244363,0.022883704299633503
9823,8677,0.30951808874244363,0.022973093769553945
9824,8678,0.30951808874244363,0.02306248323947439
9825,8679,0.30951808874244363,0.023151872709394835
9826,8680,0.30951808874244363,0.023241262179315277
9827,8681,0.30951808874244363,0.02333065164923572
9828,8682,0.30951808874244363,0.023420041119156163
9829,8683,0.30951808874244363,0.023509430589076608
9830,8684,0.30951808874244363,0.02359882005899705
9831,8685,0.30951808874244363,0.023688209528917495
9832,8686,0.30951808874244363,0.023777598998837936
9833,8687,0.30951808874244363,0.02386698846875838
9834,8688,0.30951808874244363,0.023956377938678823
9835,8689,0.30951808874244363,0.024045767408599268
9836,8690,0.30951808874244363,0.02413515687851971
9837,8691,0.30951808874244363,0.024224546348440155
9838,8692,0.30951808874244363,0.024313935818360596
9839,8693,0.30951808874244363,0.02440332528828104
9840,8694,0.30951808874244363,0.024492714758201483
9841,8695,0.30951808874244363,0.024582104228121928
9842,8696,0.30951808874244363,0.02467149369804237
9843,8697,0.30951808874244363,0.024760883167962815
9844,8698,0.30951808874244363,0.024850272637883256
9845,8699,0.30951808874244363,0.0249396621078037
9846,8700,0.30951808874244363,0.025029051577724143
9847,8701,0.30951808874244363,0.025118441047644588
9848,8702,0.30951808874244363,0.02520783051756503
9849,8703,0.30951808874244363,0.025297219987485475
9850,8704,0.30951808874244363,0.025386609457405916
9851,8705,0.30951808874244363,0.02547599892732636
9852,8706,0.30951808874244363,0.025565388397246803
9853,8707,0.30951808874244363,0.025654777867167248
9854,8708,0.30951808874244363,0.02574416733708769
9855,8709,0.30951808874244363,0.025833556807008135
9856,8710,0.30951808874244363,0.025922946276928576
9857,8711,0.30951808874244363,0.02601233574684902
9858,8713,0.30951808874244363,0.026101725216769466
9859,8714,0.30951808874244363,0.026191114686689908
9860,8715,0.30951808874244363,0.026280504156610353
9861,8716,0.30951808874244363,0.026369893626530794
9862,8717,0.30951808874244363,0.02645928309645124
9863,8719,0.30951808874244363,0.02654867256637168
9864,8720,0.30951808874244363,0.026638062036292126
9865,8722,0.30951808874244363,0.026727451506212568
9866,8723,0.30951808874244363,0.026816840976133013
9867,8724,0.30951808874244363,0.026906230446053454
9868,8727,0.30951808874244363,0.0269956199159739
9869,8729,0.30951808874244363,0.02708500938589434
9870,8730,0.30951808874244363,0.027174398855814786
9871,8731,0.30951808874244363,0.027263788325735228
9872,8732,0.30951808874244363,0.027353177795655673
9873,8733,0.30951808874244363,0.027442567265576114
9874,8734,0.30951808874244363,0.02753195673549656
9875,8735,0.30951808874244363,0.027621346205417
9876,8736,0.30951808874244363,0.027710735675337446
9877,8737,0.30951808874244363,0.027800125145257887
9878,8738,0.30951808874244363,0.027889514615178333
9879,8739,0.30951808874244363,0.027978904085098774
9880,8740,0.30951808874244363,0.02806829355501922
9881,8741,0.30951808874244363,0.02815768302493966
9882,8742,0.30951808874244363,0.028247072494860106
9883,8744,0.30951808874244363,0.028336461964780547
9884,8745,0.30951808874244363,0.028425851434700992
9885,8747,0.30951808874244363,0.028515240904621434
9886,8749,0.30951808874244363,0.02860463037454188
9887,8750,0.30951808874244363,0.02869401984446232
9888,8751,0.30951808874244363,0.028783409314382766
9889,8752,0.30951808874244363,0.02887279878430321
9890,8753,0.30951808874244363,0.028962188254223652
9891,8754,0.30951808874244363,0.029051577724144097
9892,8757,0.30951808874244363,0.02914096719406454
9893,8758,0.30951808874244363,0.029230356663984984
9894,8759,0.30951808874244363,0.029319746133905426
9895,8760,0.30951808874244363,0.02940913560382587
9896,8761,0.30951808874244363,0.029498525073746312
9897,8762,0.30951808874244363,0.029587914543666757
9898,8763,0.30951808874244363,0.0296773040135872
9899,8764,0.30951808874244363,0.029766693483507644
9900,8765,0.30951808874244363,0.029856082953428086
9901,8767,0.30951808874244363,0.02994547242334853
9902,8768,0.30951808874244363,0.030034861893268972
9903,8769,0.30951808874244363,0.030124251363189417
9904,8771,0.30951808874244363,0.03021364083310986
9905,8772,0.30951808874244363,0.030303030303030304
9906,8775,0.30951808874244363,0.030392419772950745
9907,8776,0.30951808874244363,0.03048180924287119
9908,8781,0.30951808874244363,0.030571198712791632
9909,8783,0.30951808874244363,0.030660588182712077
9910,8784,0.30951808874244363,0.03074997765263252
9911,8785,0.30951808874244363,0.030839367122552964
9912,8786,0.30951808874244363,0.030928756592473405
9913,8787,0.30951808874244363,0.03101814606239385
9914,8788,0.30951808874244363,0.031107535532314292
9915,8789,0.30951808874244363,0.031196925002234737
9916,8790,0.30951808874244363,0.03128631447215518
9917,8791,0.30951808874244363,0.031375703942075624
9918,8792,0.30951808874244363,0.03146509341199607
9919,8793,0.30951808874244363,0.03155448288191651
9920,8794,0.30951808874244363,0.03164387235183695
9921,8795,0.30951808874244363,0.0317332618217574
9922,8796,0.30951808874244363,0.03182265129167784
9923,8797,0.30951808874244363,0.03191204076159829
9924,8798,0.30951808874244363,0.032001430231518725
9925,8800,0.30951808874244363,0.03209081970143917
9926,8801,0.30951808874244363,0.032180209171359615
9927,8802,0.30951808874244363,0.03226959864128006
9928,8803,0.30951808874244363,0.0323589881112005
9929,8804,0.30951808874244363,0.032448377581120944
9930,8805,0.30951808874244363,0.03253776705104139
9931,8806,0.30951808874244363,0.032627156520961834
9932,8807,0.30951808874244363,0.03271654599088227
9933,8808,0.30951808874244363,0.03280593546080272
9934,8809,0.30951808874244363,0.03289532493072316
9935,8812,0.30951808874244363,0.03298471440064361
9936,8813,0.30951808874244363,0.033074103870564045
9937,8814,0.30951808874244363,0.03316349334048449
9938,8815,0.30951808874244363,0.033252882810404935
9939,8816,0.30951808874244363,0.03334227228032538
9940,8817,0.30951808874244363,0.03343166175024582
9941,8818,0.30951808874244363,0.03352105122016626
9942,8819,0.30951808874244363,0.03361044069008671
9943,8820,0.30951808874244363,0.03369983016000715
9944,8821,0.30951808874244363,0.03378921962992759
9945,8822,0.30951808874244363,0.03387860909984804
9946,8823,0.30951808874244363,0.03396799856976848
9947,8824,0.30951808874244363,0.03405738803968893
9948,8825,0.30951808874244363,0.034146777509609365
9949,8826,0.30951808874244363,0.03423616697952981
9950,8827,0.30951808874244363,0.034325556449450255
9951,8828,0.30951808874244363,0.0344149459193707
9952,8829,0.30951808874244363,0.03450433538929114
9953,8830,0.30951808874244363,0.03459372485921158
9954,8831,0.30951808874244363,0.03468311432913203
9955,8832,0.30951808874244363,0.03477250379905247
9956,8833,0.30951808874244363,0.03486189326897292
9957,8834,0.30951808874244363,0.034951282738893356
9958,8835,0.30951808874244363,0.0350406722088138
9959,8837,0.30951808874244363,0.035130061678734247
