,Request Id,request_preemption_time,cdf
134,335,0.0,7.418947993174568e-05
135,336,0.0,0.00014837895986349135
136,337,0.0,0.00022256843979523704
137,338,0.0,0.0002967579197269827
138,339,0.0,0.0003709473996587284
139,340,0.0,0.0004451368795904741
143,341,0.0,0.0005193263595222198
144,343,0.0,0.0005935158394539654
145,344,0.0,0.0006677053193857111
146,346,0.0,0.0007418947993174568
147,347,0.0,0.0008160842792492024
148,349,0.0,0.0008902737591809482
149,351,0.0,0.0009644632391126938
150,352,0.0,0.0010386527190444396
151,354,0.0,0.001112842198976185
152,355,0.0,0.0011870316789079308
153,357,0.0,0.0012612211588396765
154,359,0.0,0.0013354106387714222
155,360,0.0,0.001409600118703168
156,361,0.0,0.0014837895986349137
157,363,0.0,0.0015579790785666592
158,364,0.0,0.0016321685584984049
159,365,0.0,0.0017063580384301506
160,366,0.0,0.0017805475183618963
163,367,0.0,0.001854736998293642
164,368,0.0,0.0019289264782253875
165,369,0.0,0.0020031159581571333
166,370,0.0,0.002077305438088879
167,371,0.0,0.0021514949180206247
168,372,0.0,0.00222568439795237
170,374,0.0,0.002299873877884116
171,375,0.0,0.0023740633578158616
172,376,0.0,0.0024482528377476075
173,377,0.0,0.002522442317679353
174,378,0.0,0.0025966317976110985
175,379,0.0,0.0026708212775428445
177,381,0.0,0.00274501075747459
178,383,0.0,0.002819200237406336
179,384,0.0,0.0028933897173380814
180,385,0.0,0.0029675791972698273
181,386,0.0,0.003041768677201573
182,387,0.0,0.0031159581571333183
183,389,0.0,0.0031901476370650643
184,390,0.0,0.0032643371169968098
185,391,0.0,0.0033385265969285557
186,392,0.0,0.003412716076860301
187,393,0.0,0.0034869055567920467
188,394,0.0,0.0035610950367237926
189,395,0.0,0.003635284516655538
190,396,0.0,0.003709473996587284
193,397,0.0,0.0037836634765190296
194,398,0.0,0.003857852956450775
195,399,0.0,0.003932042436382521
196,400,0.0,0.0040062319163142665
197,401,0.0,0.0040804213962460124
198,402,0.0,0.004154610876177758
199,403,0.0,0.0042288003561095034
200,404,0.0,0.004302989836041249
202,405,0.0,0.004377179315972995
203,406,0.0,0.00445136879590474
204,407,0.0,0.004525558275836486
205,408,0.0,0.004599747755768232
206,409,0.0,0.004673937235699978
207,410,0.0,0.004748126715631723
208,411,0.0,0.004822316195563469
210,414,0.0,0.004896505675495215
211,415,0.0,0.00497069515542696
212,417,0.0,0.005044884635358706
213,418,0.0,0.005119074115290452
214,421,0.0,0.005193263595222197
215,422,0.0,0.005267453075153943
216,423,0.0,0.005341642555085689
217,424,0.0,0.005415832035017435
218,425,0.0,0.00549002151494918
219,426,0.0,0.005564210994880926
220,427,0.0,0.005638400474812672
221,428,0.0,0.005712589954744417
223,429,0.0,0.005786779434676163
224,430,0.0,0.005860968914607909
225,431,0.0,0.005935158394539655
226,432,0.0,0.0060093478744714
227,433,0.0,0.006083537354403146
228,435,0.0,0.006157726834334892
229,436,0.0,0.006231916314266637
231,437,0.0,0.006306105794198383
232,438,0.0,0.0063802952741301286
233,439,0.0,0.006454484754061874
234,440,0.0,0.0065286742339936196
235,441,0.0,0.0066028637139253655
236,442,0.0,0.006677053193857111
237,443,0.0,0.0067512426737888565
238,444,0.0,0.006825432153720602
240,447,0.0,0.006899621633652348
241,449,0.0,0.006973811113584093
242,450,0.0,0.007048000593515839
243,451,0.0,0.007122190073447585
244,452,0.0,0.007196379553379331
247,453,0.0,0.007270569033311076
248,454,0.0,0.007344758513242822
249,455,0.0,0.007418947993174568
250,456,0.0,0.007493137473106313
251,457,0.0,0.007567326953038059
252,458,0.0,0.007641516432969805
255,461,0.0,0.00771570591290155
256,462,0.0,0.007789895392833296
257,463,0.0,0.007864084872765041
258,465,0.0,0.007938274352696787
259,466,0.0,0.008012463832628533
260,467,0.0,0.008086653312560279
261,468,0.0,0.008160842792492025
262,469,0.0,0.00823503227242377
263,470,0.0,0.008309221752355517
264,471,0.0,0.008383411232287261
265,472,0.0,0.008457600712219007
266,473,0.0,0.008531790192150753
267,474,0.0,0.008605979672082499
268,475,0.0,0.008680169152014245
269,476,0.0,0.00875435863194599
270,478,0.0,0.008828548111877737
271,479,0.0,0.00890273759180948
272,480,0.0,0.008976927071741227
273,481,0.0,0.009051116551672973
274,483,0.0,0.009125306031604719
275,484,0.0,0.009199495511536464
279,485,0.0,0.00927368499146821
280,487,0.0,0.009347874471399956
281,492,0.0,0.0094220639513317
282,493,0.0,0.009496253431263446
284,494,0.0,0.009570442911195192
285,495,0.0,0.009644632391126938
286,496,0.0,0.009718821871058684
287,497,0.0,0.00979301135099043
288,498,0.0,0.009867200830922174
289,499,0.0,0.00994139031085392
290,500,0.0,0.010015579790785666
291,501,0.0,0.010089769270717412
292,503,0.0,0.010163958750649158
293,504,0.0,0.010238148230580904
294,505,0.0,0.01031233771051265
295,506,0.0,0.010386527190444394
296,507,0.0,0.01046071667037614
297,509,0.0,0.010534906150307886
298,510,0.0,0.010609095630239632
299,511,0.0,0.010683285110171378
301,512,0.0,0.010757474590103124
302,513,0.0,0.01083166407003487
303,514,0.0,0.010905853549966614
304,515,0.0,0.01098004302989836
305,516,0.0,0.011054232509830106
306,517,0.0,0.011128421989761852
307,518,0.0,0.011202611469693598
308,519,0.0,0.011276800949625344
309,520,0.0,0.01135099042955709
311,521,0.0,0.011425179909488834
312,522,0.0,0.01149936938942058
313,523,0.0,0.011573558869352326
314,524,0.0,0.011647748349284072
315,525,0.0,0.011721937829215818
316,526,0.0,0.011796127309147563
317,527,0.0,0.01187031678907931
318,528,0.0,0.011944506269011054
319,529,0.0,0.0120186957489428
321,530,0.0,0.012092885228874545
322,531,0.0,0.012167074708806291
323,532,0.0,0.012241264188738037
324,533,0.0,0.012315453668669783
325,534,0.0,0.012389643148601527
326,535,0.0,0.012463832628533273
327,536,0.0,0.01253802210846502
328,537,0.0,0.012612211588396765
329,538,0.0,0.012686401068328511
331,539,0.0,0.012760590548260257
332,540,0.0,0.012834780028192003
333,541,0.0,0.012908969508123747
334,542,0.0,0.012983158988055493
335,543,0.0,0.013057348467987239
336,545,0.0,0.013131537947918985
337,546,0.0,0.013205727427850731
339,548,0.0,0.013279916907782477
340,549,0.0,0.013354106387714223
341,550,0.0,0.013428295867645967
342,551,0.0,0.013502485347577713
343,552,0.0,0.013576674827509459
344,554,0.0,0.013650864307441205
345,556,0.0,0.01372505378737295
347,557,0.0,0.013799243267304697
348,558,0.0,0.013873432747236443
349,559,0.0,0.013947622227168187
350,560,0.0,0.014021811707099933
351,561,0.0,0.014096001187031679
352,562,0.0,0.014170190666963425
353,563,0.0,0.01424438014689517
354,564,0.0,0.014318569626826917
355,565,0.0,0.014392759106758662
359,566,0.0,0.014466948586690407
360,567,0.0,0.014541138066622153
361,568,0.0,0.014615327546553898
362,569,0.0,0.014689517026485644
363,570,0.0,0.01476370650641739
364,571,0.0,0.014837895986349136
365,572,0.0,0.014912085466280882
366,573,0.0,0.014986274946212626
369,576,0.0,0.015060464426144372
370,577,0.0,0.015134653906076118
371,578,0.0,0.015208843386007864
372,580,0.0,0.01528303286593961
373,582,0.0,0.015357222345871356
376,585,0.0,0.0154314118258031
377,586,0.0,0.015505601305734846
378,591,0.0,0.015579790785666592
381,593,0.0,0.01565398026559834
382,594,0.0,0.015728169745530082
383,595,0.0,0.015802359225461828
384,597,0.0,0.015876548705393574
385,598,0.0,0.01595073818532532
386,599,0.0,0.016024927665257066
387,601,0.0,0.016099117145188812
389,602,0.0,0.016173306625120558
390,603,0.0,0.016247496105052304
391,604,0.0,0.01632168558498405
392,605,0.0,0.016395875064915796
393,606,0.0,0.01647006454484754
394,607,0.0,0.016544254024779288
395,608,0.0,0.016618443504711033
396,609,0.0,0.016692632984642776
397,610,0.0,0.016766822464574522
398,611,0.0,0.016841011944506268
399,612,0.0,0.016915201424438014
400,613,0.0,0.01698939090436976
401,614,0.0,0.017063580384301506
402,615,0.0,0.01713776986423325
403,616,0.0,0.017211959344164997
404,617,0.0,0.017286148824096743
405,618,0.0,0.01736033830402849
406,619,0.0,0.017434527783960235
407,620,0.0,0.01750871726389198
408,621,0.0,0.017582906743823727
409,622,0.0,0.017657096223755473
410,623,0.0,0.017731285703687216
411,624,0.0,0.01780547518361896
412,625,0.0,0.017879664663550707
413,627,0.0,0.017953854143482453
414,628,0.0,0.0180280436234142
415,629,0.0,0.018102233103345945
416,630,0.0,0.01817642258327769
417,631,0.0,0.018250612063209437
418,632,0.0,0.018324801543141183
419,633,0.0,0.01839899102307293
420,634,0.0,0.018473180503004675
421,635,0.0,0.01854736998293642
422,636,0.0,0.018621559462868167
423,637,0.0,0.018695748942799913
424,638,0.0,0.018769938422731655
425,639,0.0,0.0188441279026634
426,640,0.0,0.018918317382595147
427,641,0.0,0.018992506862526893
428,642,0.0,0.01906669634245864
429,643,0.0,0.019140885822390385
430,644,0.0,0.01921507530232213
433,647,0.0,0.019289264782253877
434,648,0.0,0.019363454262185623
435,649,0.0,0.01943764374211737
436,650,0.0,0.019511833222049114
437,651,0.0,0.01958602270198086
438,652,0.0,0.019660212181912606
439,653,0.0,0.01973440166184435
440,654,0.0,0.019808591141776095
442,656,0.0,0.01988278062170784
443,658,0.0,0.019956970101639587
444,659,0.0,0.020031159581571333
445,660,0.0,0.02010534906150308
446,661,0.0,0.020179538541434824
447,662,0.0,0.02025372802136657
448,663,0.0,0.020327917501298316
449,664,0.0,0.020402106981230062
450,665,0.0,0.020476296461161808
451,666,0.0,0.020550485941093554
452,667,0.0,0.0206246754210253
453,669,0.0,0.020698864900957046
454,670,0.0,0.02077305438088879
455,671,0.0,0.020847243860820534
456,673,0.0,0.02092143334075228
457,674,0.0,0.020995622820684026
458,675,0.0,0.021069812300615772
459,676,0.0,0.021144001780547518
460,677,0.0,0.021218191260479264
461,678,0.0,0.02129238074041101
462,679,0.0,0.021366570220342756
463,680,0.0,0.021440759700274502
464,682,0.0,0.021514949180206248
467,683,0.0,0.021589138660137994
468,686,0.0,0.02166332814006974
469,688,0.0,0.021737517620001486
470,689,0.0,0.021811707099933228
471,690,0.0,0.021885896579864974
473,692,0.0,0.02196008605979672
474,693,0.0,0.022034275539728466
475,694,0.0,0.02210846501966021
476,695,0.0,0.022182654499591958
477,696,0.0,0.022256843979523704
478,697,0.0,0.02233103345945545
479,698,0.0,0.022405222939387195
480,699,0.0,0.02247941241931894
481,700,0.0,0.022553601899250687
482,701,0.0,0.022627791379182433
483,702,0.0,0.02270198085911418
484,705,0.0,0.02277617033904592
485,707,0.0,0.022850359818977668
486,708,0.0,0.022924549298909414
488,710,0.0,0.02299873877884116
489,711,0.0,0.023072928258772905
490,713,0.0,0.02314711773870465
491,715,0.0,0.023221307218636397
492,716,0.0,0.023295496698568143
493,717,0.0,0.02336968617849989
494,718,0.0,0.023443875658431635
495,719,0.0,0.02351806513836338
496,720,0.0,0.023592254618295127
497,721,0.0,0.023666444098226873
498,722,0.0,0.02374063357815862
499,724,0.0,0.02381482305809036
500,725,0.0,0.023889012538022107
501,726,0.0,0.023963202017953853
504,728,0.0,0.0240373914978856
505,729,0.0,0.024111580977817345
506,730,0.0,0.02418577045774909
507,731,0.0,0.024259959937680837
508,732,0.0,0.024334149417612583
509,734,0.0,0.02440833889754433
510,735,0.0,0.024482528377476075
511,736,0.0,0.02455671785740782
515,737,0.0,0.024630907337339566
516,738,0.0,0.024705096817271312
517,739,0.0,0.024779286297203055
518,740,0.0,0.0248534757771348
519,741,0.0,0.024927665257066547
520,742,0.0,0.025001854736998293
521,744,0.0,0.02507604421693004
522,745,0.0,0.025150233696861785
525,746,0.0,0.02522442317679353
526,747,0.0,0.025298612656725276
527,750,0.0,0.025372802136657022
528,751,0.0,0.02544699161658877
529,752,0.0,0.025521181096520514
530,753,0.0,0.02559537057645226
531,754,0.0,0.025669560056384006
533,755,0.0,0.025743749536315752
534,756,0.0,0.025817939016247494
535,757,0.0,0.02589212849617924
536,758,0.0,0.025966317976110986
537,759,0.0,0.026040507456042732
538,760,0.0,0.026114696935974478
539,761,0.0,0.026188886415906224
540,763,0.0,0.02626307589583797
542,764,0.0,0.026337265375769716
543,765,0.0,0.026411454855701462
544,766,0.0,0.026485644335633208
545,768,0.0,0.026559833815564954
546,769,0.0,0.0266340232954967
547,770,0.0,0.026708212775428446
548,771,0.0,0.02678240225536019
549,772,0.0,0.026856591735291934
551,773,0.0,0.02693078121522368
552,774,0.0,0.027004970695155426
553,776,0.0,0.027079160175087172
554,777,0.0,0.027153349655018918
555,778,0.0,0.027227539134950664
556,779,0.0,0.02730172861488241
557,780,0.0,0.027375918094814156
558,781,0.0,0.0274501075747459
560,785,0.0,0.027524297054677647
561,786,0.0,0.027598486534609393
562,787,0.0,0.02767267601454114
563,788,0.0,0.027746865494472885
564,789,0.0,0.027821054974404628
565,790,0.0,0.027895244454336374
566,353,0.0,0.02796943393426812
567,356,0.0,0.028043623414199866
569,791,0.0,0.02811781289413161
570,793,0.0,0.028192002374063357
571,795,0.0,0.028266191853995103
572,796,0.0,0.02834038133392685
573,797,0.0,0.028414570813858595
574,798,0.0,0.02848876029379034
575,799,0.0,0.028562949773722087
578,801,0.0,0.028637139253653833
579,802,0.0,0.02871132873358558
580,803,0.0,0.028785518213517325
581,804,0.0,0.028859707693449067
582,805,0.0,0.028933897173380813
583,806,0.0,0.02900808665331256
584,807,0.0,0.029082276133244305
585,808,0.0,0.02915646561317605
588,811,0.0,0.029230655093107797
589,812,0.0,0.029304844573039543
590,813,0.0,0.02937903405297129
591,814,0.0,0.029453223532903035
592,816,0.0,0.02952741301283478
596,823,0.0,0.029601602492766527
597,824,0.0,0.029675791972698273
598,825,0.0,0.02974998145263002
599,826,0.0,0.029824170932561764
600,382,0.0,0.029898360412493507
602,831,0.0,0.029972549892425253
603,832,0.0,0.030046739372357
604,833,0.0,0.030120928852288745
605,834,0.0,0.03019511833222049
610,841,0.0,0.030269307812152237
611,842,0.0,0.030343497292083983
612,843,0.0,0.03041768677201573
613,844,0.0,0.030491876251947474
618,852,0.0,0.03056606573187922
625,861,0.0,0.030640255211810966
626,862,0.0,0.030714444691742712
627,419,0.0,0.030788634171674458
628,420,0.0,0.0308628236516062
636,871,0.0,0.030937013131537947
701,486,0.0,0.031011202611469692
702,490,0.0,0.03108539209140144
751,544,0.0,0.031159581571333184
792,584,0.0,0.03123377105126493
850,655,0.0,0.03130796053119668
886,687,0.0,0.03138215001112842
887,691,0.0,0.031456339491060165
904,706,0.0,0.031530528970991914
918,727,0.0,0.031604718450923656
974,784,0.0,0.031678907930855406
996,815,0.0,0.03175309741078715
997,817,0.0,0.0318272868907189
1005,821,0.0,0.03190147637065064
132,332,0.003940722587905121,0.03197566585058239
133,333,0.003940722587905121,0.03204985533051413
127,324,0.02141404880052722,0.03212404481044588
128,325,0.02141404880052722,0.032198234290377624
129,326,0.02141404880052722,0.03227242377030937
130,328,0.02141404880052722,0.032346613250241116
523,327,0.02141404880052722,0.03242080273017286
126,321,0.043987543780187544,0.03249499221010461
512,317,0.043987543780187544,0.03256918169003635
513,318,0.043987543780187544,0.0326433711699681
125,314,0.05626036740357376,0.03271756064989984
502,315,0.05626036740357376,0.03279175012983159
503,316,0.05626036740357376,0.032865939609763334
630,863,0.060958978393488295,0.03294012908969508
638,872,0.060958978393488295,0.033014318569626826
646,881,0.060958978393488295,0.033088508049558575
647,882,0.060958978393488295,0.03316269752949032
648,883,0.060958978393488295,0.03323688700942207
653,891,0.060958978393488295,0.03331107648935381
654,892,0.060958978393488295,0.03338526596928555
663,902,0.060958978393488295,0.0334594554492173
664,903,0.060958978393488295,0.033533644929149044
672,911,0.060958978393488295,0.03360783440908079
673,912,0.060958978393488295,0.033682023889012536
674,913,0.060958978393488295,0.033756213368944285
683,922,0.060958978393488295,0.03383040284887603
684,923,0.060958978393488295,0.03390459232880778
691,931,0.060958978393488295,0.03397878180873952
692,932,0.060958978393488295,0.03405297128867127
699,941,0.060958978393488295,0.03412716076860301
700,943,0.060958978393488295,0.03420135024853476
710,951,0.060958978393488295,0.0342755397284665
711,952,0.060958978393488295,0.03434972920839825
721,961,0.060958978393488295,0.034423918688329995
1057,873,0.060958978393488295,0.03449810816826174
1103,933,0.060958978393488295,0.03457229764819349
639,874,0.06180533800799459,0.03464648712812523
649,884,0.06180533800799459,0.03472067660805698
655,894,0.06180533800799459,0.03479486608798872
665,904,0.06180533800799459,0.03486905556792047
675,914,0.06180533800799459,0.03494324504785221
1047,864,0.06180533800799459,0.03501743452778396
586,809,0.06182047400799462,0.035091624007715705
594,819,0.06182047400799462,0.035165813487647454
607,836,0.06182047400799462,0.0352400029675792
608,838,0.06182047400799462,0.035314192447510946
615,845,0.06182047400799462,0.03538838192744269
616,847,0.06182047400799462,0.03546257140737443
620,855,0.06182047400799462,0.03553676088730618
621,856,0.06182047400799462,0.03561095036723792
622,857,0.06182047400799462,0.03568513984716967
623,858,0.06182047400799462,0.035759329327101415
631,865,0.06182047400799462,0.035833518807033164
632,866,0.06182047400799462,0.03590770828696491
633,868,0.06182047400799462,0.035981897766896656
634,869,0.06182047400799462,0.0360560872468284
640,875,0.06182047400799462,0.03613027672676015
641,876,0.06182047400799462,0.03620446620669189
642,878,0.06182047400799462,0.03627865568662364
643,879,0.06182047400799462,0.03635284516655538
650,885,0.06182047400799462,0.036427034646487125
651,887,0.06182047400799462,0.036501224126418874
652,888,0.06182047400799462,0.03657541360635062
656,895,0.06182047400799462,0.036649603086282366
657,896,0.06182047400799462,0.03672379256621411
658,897,0.06182047400799462,0.03679798204614586
659,898,0.06182047400799462,0.0368721715260776
666,905,0.06182047400799462,0.03694636100600935
667,906,0.06182047400799462,0.03702055048594109
668,907,0.06182047400799462,0.03709473996587284
676,915,0.06182047400799462,0.037168929445804584
677,916,0.06182047400799462,0.037243118925736333
685,925,0.06182047400799462,0.037317308405668076
1064,886,0.06182047400799462,0.037391497885599825
577,800,0.06188418600799395,0.03746568736553157
587,810,0.06188418600799395,0.03753987684546331
595,820,0.06188418600799395,0.03761406632539506
601,830,0.06188418600799395,0.0376882558053268
609,840,0.06188418600799395,0.03776244528525855
617,850,0.06188418600799395,0.037836634765190294
624,860,0.06188418600799395,0.03791082424512204
635,870,0.06188418600799395,0.037985013725053786
644,880,0.06188418600799395,0.038059203204985535
121,306,0.065633374254225,0.03813339268491728
122,307,0.065633374254225,0.03820758216484903
115,299,0.07608903767690567,0.03828177164478077
116,300,0.07608903767690567,0.03835596112471252
117,302,0.07608903767690567,0.03843015060464426
118,303,0.07608903767690567,0.038504340084576004
119,304,0.07608903767690567,0.03857852956450775
487,301,0.07608903767690567,0.038652719044439496
110,293,0.08758009667232125,0.038726908524371245
111,295,0.08758009667232125,0.03880109800430299
112,296,0.08758009667232125,0.03887528748423474
113,297,0.08758009667232125,0.03894947696416648
114,298,0.08758009667232125,0.03902366644409823
777,1026,0.12187832158697542,0.03909785592402997
786,1036,0.12187832158697542,0.03917204540396172
796,1046,0.12187832158697542,0.03924623488389346
804,1056,0.12187832158697542,0.03932042436382521
812,1066,0.12187832158697542,0.039394613843756955
821,1076,0.12187832158697542,0.0394688033236887
832,1086,0.12187832158697542,0.03954299280362045
768,1017,0.12187832158697631,0.03961718228355219
778,1027,0.12187832158697631,0.03969137176348394
805,1057,0.12187832158697631,0.03976556124341568
813,1067,0.12187832158697631,0.03983975072334743
822,1077,0.12187832158697631,0.03991394020327917
833,1087,0.12187832158697631,0.03998812968321092
713,953,0.12191795678697659,0.040062319163142665
723,963,0.12191795678697659,0.040136508643074414
731,973,0.12191795678697659,0.04021069812300616
737,983,0.12191795678697659,0.040284887602937906
765,1013,0.12191795678697659,0.04035907708286965
774,1023,0.12191795678697659,0.0404332665628014
782,1033,0.12191795678697659,0.04050745604273314
785,1035,0.12191795678697659,0.04058164552266488
795,1044,0.12191795678697659,0.04065583500259663
803,1054,0.12191795678697659,0.040730024482528375
810,1064,0.12191795678697659,0.040804213962460124
