,Request Id,request_model_execution_time,cdf
0,0,1.3000144362999153,8.581481163648846e-05
1,1,1.304010284447775,0.00017162962327297692
2,2,1.3077448719786204,0.0002574444349094654
3,3,1.3114268359595234,0.00034325924654595385
4,5,1.3188306419962055,0.0004290740581824423
5,6,1.3221622967565287,0.0005148888698189308
6,7,1.3254711357147402,0.0006007036814554192
7,8,1.3287687630985556,0.0006865184930919077
8,9,1.3320656301423814,0.0007723333047283961
9,10,1.3353622111671841,0.0008581481163648846
10,11,1.3386584163293422,0.000943962928001373
11,12,1.3419459868102344,0.0010297777396378615
12,13,1.3452096012585244,0.00111559255127435
13,14,1.3483539454536357,0.0012014073629108384
14,15,1.3514328581122932,0.0012872221745473269
15,16,1.3545069570877883,0.0013730369861838154
16,17,1.357577333585041,0.0014588517978203037
17,18,1.3606456570223155,0.0015446666094567922
18,19,1.3637121106688825,0.0016304814210932807
19,20,1.3667605853814297,0.0017162962327297692
20,21,1.3697999686605642,0.0018021110443662575
21,22,1.3729646699953286,0.001887925856002746
22,23,1.3761290577039826,0.0019737406676392346
23,24,1.379293804634587,0.002059555479275723
24,26,1.3856871565462006,0.0021453702909122116
25,27,1.3888516707259448,0.0022311851025487
26,28,1.3920113861986643,0.002316999914185188
27,29,1.3950749232842785,0.0024028147258216767
28,30,1.3980142932952138,0.0024886295374581652
29,31,1.4009536932223527,0.0025744443490946537
30,32,1.4038934567023715,0.0026602591607311423
31,33,1.4068328695729293,0.0027460739723676308
32,34,1.4097722937764239,0.0028318887840041193
33,36,1.4158992908034709,0.0029177035956406074
34,37,1.4188384852971274,0.003003518407277096
35,38,1.4214570015785744,0.0030893332189135844
36,39,1.4240790437882596,0.003175148030550073
37,40,1.4266949973986205,0.0032609628421865614
38,41,1.429291806310986,0.00334677765382305
39,42,1.4318048174823805,0.0034325924654595385
40,43,1.434293281100484,0.003518407277096027
41,44,1.4367772584495464,0.003604222088732515
42,46,1.4402986076583844,0.0036900369003690036
43,47,1.4418784177938782,0.003775851712005492
44,48,1.4434635729381315,0.0038616665236419806
45,49,1.4450110854465992,0.003947481335278469
46,50,1.4465458474962336,0.004033296146914957
47,51,1.4480684635863001,0.004119110958551446
48,52,1.449584157031563,0.004204925770187934
49,53,1.4510760670727758,0.004290740581824423
50,54,1.4521968006650297,0.004376555393460911
51,55,1.4533165091342108,0.0044623702050974
52,56,1.4544353608746494,0.004548185016733888
53,57,1.4555476090806097,0.004633999828370376
54,58,1.4566391060235389,0.004719814640006865
55,59,1.4577251046865976,0.004805629451643353
56,60,1.4588082657395036,0.004891444263279842
57,61,1.459020661721509,0.0049772590749163305
58,63,1.4611888949381917,0.005063073886552819
59,64,1.4620999671126476,0.0051488886981893075
60,65,1.4630329776172242,0.005234703509825796
61,66,1.46392936543254,0.0053205183214622845
62,67,1.4642729100126883,0.005406333133098773
63,68,1.464608774660244,0.0054921479447352615
64,69,1.4649429878791527,0.00557796275637175
65,70,1.4652010544195453,0.005663777568008239
1783,1826,1.4653989163821384,0.005749592379644727
1784,1827,1.4653989163821386,0.005835407191281215
1785,1828,1.4653989163821386,0.005921222002917704
1782,1825,1.465398916382139,0.006007036814554192
1786,1829,1.465398916382139,0.006092851626190681
1787,1830,1.465398916382139,0.006178666437827169
1781,1824,1.4653989163821393,0.006264481249463658
1780,1823,1.4653989163821395,0.006350296061100146
1788,1831,1.4653989163821395,0.006436110872736634
1789,1832,1.4653989163821395,0.006521925684373123
1777,1820,1.4653989163821397,0.006607740496009611
1779,1822,1.4653989163821397,0.0066935553076461
1776,1819,1.46539891638214,0.006779370119282588
1778,1821,1.46539891638214,0.006865184930919077
1790,1833,1.46539891638214,0.006950999742555565
1791,1834,1.46539891638214,0.007036814554192054
1775,1818,1.4653989163821401,0.007122629365828542
1774,1817,1.4653989163821404,0.00720844417746503
1792,1835,1.4653989163821404,0.007294258989101519
1793,1836,1.4653989163821404,0.007380073800738007
1771,1814,1.4653989163821406,0.007465888612374496
1773,1816,1.4653989163821406,0.007551703424010984
1770,1813,1.4653989163821408,0.007637518235647473
1772,1815,1.4653989163821408,0.007723333047283961
1794,1837,1.4653989163821408,0.007809147858920449
1795,1838,1.4653989163821408,0.007894962670556938
1769,1812,1.465398916382141,0.007980777482193427
1766,1809,1.4653989163821413,0.008066592293829914
1768,1811,1.4653989163821413,0.008152407105466403
1796,1839,1.4653989163821413,0.008238221917102892
1797,1840,1.4653989163821413,0.008324036728739381
1767,1810,1.4653989163821415,0.008409851540375868
1798,1841,1.4653989163821417,0.008495666352012357
1799,1842,1.4653989163821417,0.008581481163648846
1800,1843,1.4653989163821417,0.008667295975285334
1801,1844,1.4653989163821417,0.008753110786921823
1802,1845,1.4653989163821417,0.008838925598558312
1803,1846,1.4653989163821417,0.0089247404101948
1804,1847,1.4653989163821417,0.009010555221831288
1805,1848,1.4653989163821421,0.009096370033467777
1806,1849,1.4653989163821421,0.009182184845104266
1807,1850,1.4653989163821421,0.009267999656740753
1808,1851,1.4653989163821421,0.009353814468377242
1809,1852,1.4653989163821426,0.00943962928001373
1810,1853,1.4653989163821426,0.00952544409165022
1811,1854,1.4653989163821426,0.009611258903286707
1812,1855,1.4653989163821426,0.009697073714923196
1813,1856,1.465398916382143,0.009782888526559685
1814,1857,1.465398916382143,0.009868703338196172
1815,1858,1.465398916382143,0.009954518149832661
66,71,1.4654402518030516,0.01004033296146915
67,72,1.4656908758895795,0.010126147773105639
72,77,1.4658185854662344,0.010211962584742126
73,78,1.4659184126662343,0.010297777396378615
68,73,1.4659244752096499,0.010383592208015104
123,129,1.465932713022835,0.010469407019651591
124,130,1.465932713022835,0.01055522183128808
74,79,1.4660109934720882,0.010641036642924569
237,249,1.466036636569329,0.010726851454561058
238,250,1.4660366365693291,0.010812666266197545
239,251,1.4660366365693291,0.010898481077834034
236,248,1.4660366365693296,0.010984295889470523
240,252,1.4660366365693296,0.01107011070110701
241,253,1.4660366365693296,0.0111559255127435
242,254,1.46603663656933,0.011241740324379988
243,255,1.46603663656933,0.011327555136016477
244,256,1.4660366365693305,0.011413369947652964
245,257,1.4660366365693305,0.011499184759289453
246,258,1.466036636569331,0.011584999570925942
247,259,1.466036636569331,0.01167081438256243
248,260,1.4660366365693314,0.011756629194198918
75,80,1.466101035072088,0.011842444005835407
69,74,1.466152275911592,0.011928258817471896
119,125,1.4661592369431813,0.012014073629108384
120,126,1.4661592369431813,0.012099888440744873
121,127,1.4661592369431813,0.012185703252381361
122,128,1.4661592369431813,0.012271518064017849
113,119,1.4661592369431817,0.012357332875654338
114,120,1.4661592369431817,0.012443147687290827
115,121,1.4661592369431817,0.012528962498927316
116,122,1.4661592369431817,0.012614777310563803
117,123,1.4661592369431817,0.012700592122200292
118,124,1.4661592369431817,0.01278640693383678
76,81,1.4661815022720879,0.012872221745473268
128,135,1.4662063345431808,0.012958036557109757
129,136,1.4662063345431808,0.013043851368746246
125,132,1.4662063345431813,0.013129666180382735
126,133,1.4662063345431813,0.013215480992019222
127,134,1.4662063345431813,0.01330129580365571
139,147,1.4662248497431802,0.0133871106152922
140,148,1.4662248497431802,0.013472925426928687
138,146,1.4662248497431807,0.013558740238565176
78,83,1.4662464110720874,0.013644555050201665
79,84,1.4662464110720874,0.013730369861838154
77,82,1.4662464110720879,0.013816184673474641
80,85,1.4662464110720879,0.01390199948511113
81,86,1.4662464110720879,0.013987814296747619
70,75,1.4663790121858276,0.014073629108384108
103,109,1.4664070920635273,0.014159443920020595
104,110,1.4664070920635277,0.014245258731657084
105,111,1.4664070920635277,0.014331073543293573
106,112,1.4664070920635277,0.01441688835493006
107,113,1.4664070920635277,0.01450270316656655
108,114,1.4664070920635277,0.014588517978203038
110,116,1.4664070920635277,0.014674332789839527
111,117,1.4664070920635277,0.014760147601476014
112,118,1.4664070920635277,0.014845962413112503
109,115,1.4664070920635282,0.014931777224748992
83,89,1.4664717896635242,0.01501759203638548
82,88,1.4664717896635244,0.015103406848021968
84,90,1.4664717896635246,0.015189221659658457
85,91,1.4664717896635246,0.015275036471294946
86,92,1.466471789663525,0.015360851282931434
87,93,1.466471789663525,0.015446666094567922
88,94,1.4664717896635255,0.015532480906204411
89,95,1.4664717896635255,0.015618295717840899
90,96,1.466471789663526,0.01570411052947739
91,97,1.466471789663526,0.015789925341113877
92,98,1.4664717896635264,0.015875740152750364
93,99,1.4664717896635264,0.015961554964386854
94,100,1.4664717896635264,0.01604736977602334
95,101,1.4664717896635264,0.01613318458765983
96,102,1.4664717896635264,0.01621899939929632
97,103,1.4664717896635269,0.016304814210932807
98,104,1.4664717896635269,0.016390629022569294
99,105,1.4664717896635269,0.016476443834205785
100,106,1.4664717896635269,0.016562258645842272
101,107,1.4664717896635273,0.016648073457478763
102,108,1.4664717896635273,0.01673388826911525
135,143,1.4664866440635267,0.016819703080751737
136,144,1.4664866440635267,0.016905517892388228
137,145,1.4664866440635267,0.016991332704024715
130,138,1.4664866440635271,0.017077147515661202
131,139,1.4664866440635271,0.017162962327297693
132,140,1.4664866440635271,0.01724877713893418
133,141,1.4664866440635271,0.017334591950570667
134,142,1.4664866440635271,0.017420406762207158
71,76,1.4666047571810816,0.017506221573843645
293,307,1.4666595023565225,0.017592036385480132
282,296,1.466659502356523,0.017677851197116623
283,297,1.466659502356523,0.01776366600875311
284,298,1.466659502356523,0.0178494808203896
285,299,1.466659502356523,0.017935295632026088
286,300,1.466659502356523,0.018021110443662575
287,301,1.466659502356523,0.018106925255299066
288,302,1.466659502356523,0.018192740066935553
289,303,1.466659502356523,0.01827855487857204
290,304,1.466659502356523,0.01836436969020853
291,305,1.466659502356523,0.01845018450184502
292,306,1.466659502356523,0.018535999313481506
273,287,1.4666595023565234,0.018621814125117996
274,288,1.4666595023565234,0.018707628936754483
275,289,1.4666595023565234,0.01879344374839097
276,290,1.4666595023565234,0.01887925856002746
277,291,1.4666595023565234,0.01896507337166395
278,292,1.4666595023565234,0.01905088818330044
279,293,1.4666595023565234,0.019136702994936926
280,294,1.4666595023565234,0.019222517806573414
281,295,1.4666595023565234,0.019308332618209904
249,262,1.4666664015565223,0.01939414742984639
250,263,1.4666664015565223,0.01947996224148288
251,264,1.4666664015565227,0.01956577705311937
252,265,1.4666664015565227,0.019651591864755857
253,266,1.4666664015565227,0.019737406676392344
254,267,1.4666664015565227,0.019823221488028835
255,268,1.4666664015565227,0.019909036299665322
256,269,1.4666664015565227,0.01999485111130181
257,270,1.4666664015565227,0.0200806659229383
258,271,1.4666664015565232,0.020166480734574787
259,272,1.4666664015565232,0.020252295546211278
260,273,1.4666664015565232,0.020338110357847765
261,274,1.4666664015565232,0.020423925169484252
262,275,1.4666664015565236,0.020509739981120743
263,276,1.4666664015565236,0.02059555479275723
264,277,1.4666664015565236,0.020681369604393717
265,278,1.4666664015565236,0.020767184416030208
141,150,1.467072215015382,0.020852999227666695
234,246,1.4671481845808314,0.020938814039303182
233,245,1.4671481845808316,0.021024628850939673
235,247,1.4671481845808316,0.02111044366257616
230,242,1.4671481845808318,0.021196258474212647
232,244,1.4671481845808318,0.021282073285849138
229,241,1.467148184580832,0.021367888097485625
231,243,1.467148184580832,0.021453702909122116
228,240,1.4671481845808323,0.021539517720758603
227,239,1.4671481845808325,0.02162533253239509
224,236,1.4671481845808327,0.02171114734403158
226,238,1.4671481845808327,0.02179696215566807
223,235,1.467148184580833,0.021882776967304556
225,237,1.467148184580833,0.021968591778941046
266,280,1.4672972225437144,0.022054406590577533
267,281,1.4672972225437144,0.02214022140221402
268,282,1.4672972225437144,0.02222603621385051
269,283,1.4672972225437144,0.022311851025487
270,284,1.4672972225437144,0.02239766583712349
271,285,1.4672972225437144,0.022483480648759976
272,286,1.4672972225437144,0.022569295460396464
304,319,1.4673305123754172,0.022655110272032954
303,318,1.4673305123754175,0.02274092508366944
294,309,1.4673305123754177,0.02282673989530593
295,310,1.4673305123754177,0.02291255470694242
296,311,1.4673305123754177,0.022998369518578907
298,313,1.4673305123754177,0.023084184330215394
299,314,1.4673305123754177,0.023169999141851885
300,315,1.4673305123754177,0.023255813953488372
302,317,1.4673305123754177,0.02334162876512486
301,316,1.467330512375418,0.02342744357676135
297,312,1.4673305123754181,0.023513258388397837
315,331,1.468518197362606,0.023599073200034328
312,328,1.4685181973626062,0.023684888011670815
314,330,1.4685181973626062,0.023770702823307302
311,327,1.4685181973626065,0.023856517634943793
313,329,1.4685181973626065,0.02394233244658028
310,326,1.4685181973626067,0.024028147258216767
309,325,1.468518197362607,0.024113962069853258
308,324,1.4685181973626071,0.024199776881489745
305,321,1.4685181973626074,0.024285591693126232
307,323,1.4685181973626074,0.024371406504762723
306,322,1.4685181973626076,0.02445722131639921
152,162,1.4690469508732429,0.024543036128035697
151,161,1.469046950873243,0.024628850939672188
153,163,1.469046950873243,0.024714665751308675
150,160,1.4690469508732433,0.024800480562945166
149,159,1.4690469508732436,0.024886295374581653
148,158,1.4690469508732438,0.02497211018621814
145,155,1.469046950873244,0.02505792499785463
147,157,1.469046950873244,0.025143739809491118
144,154,1.4690469508732442,0.025229554621127605
146,156,1.4690469508732442,0.025315369432764096
143,153,1.4690469508732444,0.025401184244400583
142,152,1.4690469508732447,0.02548699905603707
221,233,1.4691229204386962,0.02557281386767356
222,234,1.4691229204386964,0.02565862867931005
316,333,1.4692026169561225,0.025744443490946536
317,334,1.4692026169561228,0.025830258302583026
318,335,1.4692026169561228,0.025916073114219514
319,336,1.4692026169561232,0.026001887925856004
320,337,1.4692026169561232,0.02608770273749249
327,345,1.469268293228427,0.02617351754912898
328,346,1.4692682932284273,0.02625933236076547
160,171,1.4698864965643983,0.026345147172401957
161,172,1.4698864965643983,0.026430961984038444
162,173,1.4698864965643987,0.026516776795674935
163,174,1.4698864965643987,0.02660259160731142
164,175,1.4698864965643992,0.02668840641894791
165,176,1.4698864965643992,0.0267742212305844
166,177,1.4698864965643996,0.026860036042220887
167,178,1.4698864965643996,0.026945850853857374
168,179,1.4698864965644,0.027031665665493865
169,180,1.4698864965644,0.027117480477130352
170,181,1.4698864965644,0.027203295288766843
171,182,1.4698864965644,0.02728911010040333
172,183,1.4698864965644,0.027374924912039817
173,184,1.4698864965644,0.027460739723676308
174,185,1.4698864965644,0.027546554535312795
175,186,1.4698864965644005,0.027632369346949282
176,187,1.4698864965644005,0.027718184158585773
177,188,1.4698864965644005,0.02780399897022226
178,189,1.4698864965644005,0.027889813781858747
179,190,1.469886496564401,0.027975628593495238
180,191,1.469886496564401,0.028061443405131725
181,192,1.469886496564401,0.028147258216768216
182,193,1.469886496564401,0.028233073028404703
183,194,1.4698864965644014,0.02831888784004119
184,195,1.4698864965644014,0.02840470265167768
185,196,1.4698864965644014,0.028490517463314168
186,197,1.4698864965644014,0.028576332274950655
190,201,1.4698864965644014,0.028662147086587146
191,202,1.4698864965644014,0.028747961898223633
187,198,1.4698864965644018,0.02883377670986012
188,199,1.4698864965644018,0.02891959152149661
189,200,1.4698864965644018,0.0290054063331331
321,339,1.469898058215616,0.029091221144769586
322,340,1.4698980582156165,0.029177035956406076
323,341,1.4698980582156165,0.029262850768042564
324,342,1.469898058215617,0.029348665579679054
325,343,1.469898058215617,0.02943448039131554
326,344,1.4698980582156174,0.02952029520295203
218,230,1.469970285710898,0.02960611001458852
219,231,1.469970285710898,0.029691924826225007
220,232,1.469970285710898,0.029777739637861494
209,221,1.4699702857108985,0.029863554449497984
210,222,1.4699702857108985,0.02994936926113447
211,223,1.4699702857108985,0.03003518407277096
212,224,1.4699702857108985,0.03012099888440745
213,225,1.4699702857108985,0.030206813696043937
214,226,1.4699702857108985,0.030292628507680424
215,227,1.4699702857108985,0.030378443319316915
216,228,1.4699702857108985,0.030464258130953402
217,229,1.4699702857108985,0.030550072942589893
155,166,1.4701584988847434,0.03063588775422638
156,167,1.4701584988847434,0.030721702565862867
157,168,1.4701584988847438,0.030807517377499358
158,169,1.4701584988847438,0.030893332189135845
154,165,1.4701584988847443,0.030979147000772332
159,170,1.4701584988847443,0.031064961812408823
203,215,1.4702505952312452,0.03115077662404531
204,216,1.4702505952312452,0.031236591435681797
205,217,1.4702505952312452,0.03132240624731829
206,218,1.4702505952312452,0.03140822105895478
207,219,1.4702505952312452,0.03149403587059126
208,220,1.4702505952312452,0.03157985068222775
198,210,1.4705242167515915,0.031665665493864244
199,211,1.4705242167515915,0.03175148030550073
200,212,1.4705242167515915,0.03183729511713722
201,213,1.4705242167515915,0.03192310992877371
202,214,1.4705242167515915,0.03200892474041019
192,204,1.470524216751592,0.03209473955204668
193,205,1.470524216751592,0.032180554363683174
194,206,1.470524216751592,0.03226636917531966
195,207,1.470524216751592,0.03235218398695615
196,208,1.470524216751592,0.03243799879859264
197,209,1.470524216751592,0.03252381361022912
330,349,1.4705517522521587,0.032609628421865614
331,350,1.4705517522521587,0.032695443233502104
332,351,1.4705517522521587,0.03278125804513859
329,348,1.470551752252159,0.03286707285677508
333,352,1.4705517522521592,0.03295288766841157
334,353,1.4705517522521592,0.03303870248004805
335,354,1.4705517522521592,0.033124517291684544
336,355,1.4705517522521592,0.033210332103321034
337,356,1.4705517522521596,0.033296146914957525
338,357,1.4705517522521596,0.03338196172659401
339,358,1.4705517522521596,0.0334677765382305
340,359,1.4705517522521596,0.03355359134986699
341,360,1.47055175225216,0.033639406161503474
353,373,1.4712348298020328,0.033725220973139965
354,374,1.4712348298020328,0.033811035784776455
355,375,1.4712348298020328,0.03389685059641294
356,376,1.4712348298020328,0.03398266540804943
357,377,1.4712348298020328,0.03406848021968592
358,378,1.4712348298020328,0.034154295031322404
359,379,1.4712348298020328,0.034240109842958895
343,363,1.4712348298020332,0.034325924654595386
344,364,1.4712348298020332,0.03441173946623187
345,365,1.4712348298020332,0.03449755427786836
346,366,1.4712348298020332,0.03458336908950485
347,367,1.4712348298020332,0.034669183901141334
348,368,1.4712348298020332,0.034754998712777825
349,369,1.4712348298020332,0.034840813524414316
350,370,1.4712348298020332,0.0349266283360508
351,371,1.4712348298020332,0.03501244314768729
352,372,1.4712348298020332,0.03509825795932378
439,464,1.4713131266700823,0.035184072770960265
3696,3739,1.471452706946113,0.035269887582596755
3697,3740,1.4714527069461134,0.035355702394233246
3698,3741,1.4714527069461134,0.03544151720586973
1523,1566,1.4714527069461143,0.03552733201750622
1522,1565,1.4714527069461145,0.03561314682914271
1521,1564,1.4714527069461147,0.0356989616407792
1520,1563,1.471452706946115,0.035784776452415686
1515,1558,1.4714527069461152,0.035870591264052176
1516,1559,1.4714527069461152,0.03595640607568867
1517,1560,1.4714527069461152,0.03604222088732515
1519,1562,1.4714527069461152,0.03612803569896164
