,Request Id,request_preemption_time,cdf
0,0,0.0,8.352125615969264e-05
1,1,0.0,0.00016704251231938527
2,2,0.0,0.00025056376847907793
3,5,0.0,0.00033408502463877054
4,6,0.0,0.0004176062807984632
5,7,0.0,0.0005011275369581559
6,9,0.0,0.0005846487931178485
7,10,0.0,0.0006681700492775411
8,12,0.0,0.0007516913054372337
9,13,0.0,0.0008352125615969264
10,14,0.0,0.0009187338177566191
11,15,0.0,0.0010022550739163117
12,17,0.0,0.0010857763300760044
13,18,0.0,0.001169297586235697
14,20,0.0,0.0012528188423953897
15,22,0.0,0.0013363400985550822
16,23,0.0,0.0014198613547147748
17,24,0.0,0.0015033826108744675
18,26,0.0,0.0015869038670341601
19,27,0.0,0.0016704251231938528
20,28,0.0,0.0017539463793535455
21,29,0.0,0.0018374676355132381
22,30,0.0,0.0019209888916729308
23,31,0.0,0.0020045101478326235
24,33,0.0,0.002088031403992316
25,34,0.0,0.002171552660152009
26,35,0.0,0.0022550739163117012
27,36,0.0,0.002338595172471394
28,38,0.0,0.0024221164286310866
29,39,0.0,0.0025056376847907794
30,40,0.0,0.002589158940950472
31,41,0.0,0.0026726801971101643
32,42,0.0,0.002756201453269857
33,43,0.0,0.0028397227094295496
34,44,0.0,0.0029232439655892425
35,45,0.0,0.003006765221748935
36,46,0.0,0.003090286477908628
37,47,0.0,0.0031738077340683203
38,48,0.0,0.003257328990228013
39,49,0.0,0.0033408502463877056
40,50,0.0,0.0034243715025473985
41,51,0.0,0.003507892758707091
42,52,0.0,0.0035914140148667834
43,53,0.0,0.0036749352710264763
44,54,0.0,0.0037584565271861687
45,55,0.0,0.0038419777833458616
46,56,0.0,0.003925499039505554
47,57,0.0,0.004009020295665247
48,58,0.0,0.00409254155182494
49,59,0.0,0.004176062807984632
50,60,0.0,0.004259584064144325
51,61,0.0,0.004343105320304018
52,62,0.0,0.0044266265764637104
53,63,0.0,0.0045101478326234025
54,64,0.0,0.004593669088783095
55,65,0.0,0.004677190344942788
56,66,0.0,0.00476071160110248
57,68,0.0,0.004844232857262173
58,69,0.0,0.004927754113421866
59,70,0.0,0.005011275369581559
60,71,0.0,0.005094796625741251
61,72,0.0,0.005178317881900944
62,73,0.0,0.005261839138060637
63,74,0.0,0.005345360394220329
64,75,0.0,0.0054288816503800215
65,76,0.0,0.005512402906539714
66,77,0.0,0.005595924162699407
67,78,0.0,0.005679445418859099
68,79,0.0,0.005762966675018792
69,80,0.0,0.005846487931178485
70,81,0.0,0.005930009187338178
71,82,0.0,0.00601353044349787
72,83,0.0,0.006097051699657563
73,84,0.0,0.006180572955817256
74,85,0.0,0.006264094211976948
75,86,0.0,0.006347615468136641
76,87,0.0,0.0064311367242963335
77,88,0.0,0.006514657980456026
78,90,0.0,0.006598179236615718
79,91,0.0,0.006681700492775411
80,92,0.0,0.006765221748935104
81,93,0.0,0.006848743005094797
82,94,0.0,0.006932264261254489
83,95,0.0,0.007015785517414182
84,96,0.0,0.007099306773573875
85,97,0.0,0.007182828029733567
86,98,0.0,0.00726634928589326
87,99,0.0,0.0073498705420529525
88,100,0.0,0.007433391798212645
89,101,0.0,0.007516913054372337
90,102,0.0,0.00760043431053203
91,103,0.0,0.007683955566691723
92,104,0.0,0.007767476822851416
93,106,0.0,0.007850998079011108
94,107,0.0,0.007934519335170802
95,108,0.0,0.008018040591330494
96,110,0.0,0.008101561847490186
97,111,0.0,0.00818508310364988
98,113,0.0,0.008268604359809572
99,114,0.0,0.008352125615969264
100,115,0.0,0.008435646872128957
101,116,0.0,0.00851916812828865
102,117,0.0,0.008602689384448341
103,118,0.0,0.008686210640608035
104,119,0.0,0.008769731896767727
105,120,0.0,0.008853253152927421
106,121,0.0,0.008936774409087113
107,122,0.0,0.009020295665246805
108,128,0.0,0.009103816921406499
109,129,0.0,0.00918733817756619
110,131,0.0,0.009270859433725883
111,132,0.0,0.009354380689885576
112,133,0.0,0.009437901946045268
113,134,0.0,0.00952142320220496
114,135,0.0,0.009604944458364654
115,136,0.0,0.009688465714524346
116,137,0.0,0.009771986970684038
117,139,0.0,0.009855508226843732
118,141,0.0,0.009939029483003424
119,142,0.0,0.010022550739163118
120,143,0.0,0.01010607199532281
121,144,0.0,0.010189593251482502
122,145,0.0,0.010273114507642195
123,146,0.0,0.010356635763801888
124,147,0.0,0.01044015701996158
125,148,0.0,0.010523678276121273
126,149,0.0,0.010607199532280965
127,150,0.0,0.010690720788440657
128,151,0.0,0.010774242044600351
129,152,0.0,0.010857763300760043
130,153,0.0,0.010941284556919737
131,154,0.0,0.011024805813079429
132,155,0.0,0.01110832706923912
133,156,0.0,0.011191848325398815
134,157,0.0,0.011275369581558507
135,158,0.0,0.011358890837718199
136,159,0.0,0.011442412093877892
137,160,0.0,0.011525933350037584
138,161,0.0,0.011609454606197276
139,163,0.0,0.01169297586235697
140,164,0.0,0.011776497118516662
141,165,0.0,0.011860018374676356
142,168,0.0,0.011943539630836048
143,169,0.0,0.01202706088699574
144,170,0.0,0.012110582143155434
145,171,0.0,0.012194103399315126
146,172,0.0,0.012277624655474818
147,173,0.0,0.012361145911634511
148,174,0.0,0.012444667167794203
149,175,0.0,0.012528188423953895
150,177,0.0,0.01261170968011359
151,178,0.0,0.012695230936273281
152,179,0.0,0.012778752192432975
153,180,0.0,0.012862273448592667
154,181,0.0,0.012945794704752359
155,182,0.0,0.013029315960912053
156,183,0.0,0.013112837217071745
157,184,0.0,0.013196358473231437
158,185,0.0,0.01327987972939113
159,186,0.0,0.013363400985550822
160,187,0.0,0.013446922241710514
161,188,0.0,0.013530443497870208
162,190,0.0,0.0136139647540299
163,191,0.0,0.013697486010189594
164,192,0.0,0.013781007266349286
165,193,0.0,0.013864528522508978
166,194,0.0,0.013948049778668672
167,195,0.0,0.014031571034828364
168,196,0.0,0.014115092290988056
169,197,0.0,0.01419861354714775
170,198,0.0,0.014282134803307442
171,199,0.0,0.014365656059467134
172,200,0.0,0.014449177315626827
173,202,0.0,0.01453269857178652
174,203,0.0,0.014616219827946213
175,204,0.0,0.014699741084105905
176,205,0.0,0.014783262340265597
177,206,0.0,0.01486678359642529
178,207,0.0,0.014950304852584983
179,209,0.0,0.015033826108744675
180,212,0.0,0.015117347364904369
181,213,0.0,0.01520086862106406
182,214,0.0,0.015284389877223753
183,215,0.0,0.015367911133383446
184,216,0.0,0.015451432389543138
185,217,0.0,0.015534953645702832
186,218,0.0,0.015618474901862524
187,219,0.0,0.015701996158022216
188,220,0.0,0.01578551741418191
189,221,0.0,0.015869038670341604
190,222,0.0,0.015952559926501294
191,223,0.0,0.016036081182660988
192,224,0.0,0.01611960243882068
193,225,0.0,0.01620312369498037
194,227,0.0,0.016286644951140065
195,230,0.0,0.01637016620729976
196,231,0.0,0.01645368746345945
197,234,0.0,0.016537208719619143
198,235,0.0,0.016620729975778837
199,236,0.0,0.016704251231938527
200,237,0.0,0.01678777248809822
201,238,0.0,0.016871293744257915
202,239,0.0,0.016954815000417605
203,240,0.0,0.0170383362565773
204,3,0.0,0.017121857512736992
205,4,0.0,0.017205378768896683
206,8,0.0,0.017288900025056377
207,11,0.0,0.01737242128121607
208,241,0.0,0.01745594253737576
209,242,0.0,0.017539463793535454
210,243,0.0,0.017622985049695148
211,245,0.0,0.017706506305854842
212,249,0.0,0.017790027562014532
213,251,0.0,0.017873548818174226
214,252,0.0,0.01795707007433392
215,253,0.0,0.01804059133049361
216,254,0.0,0.018124112586653304
217,255,0.0,0.018207633842812997
218,256,0.0,0.018291155098972688
219,259,0.0,0.01837467635513238
220,260,0.0,0.018458197611292075
221,261,0.0,0.018541718867451765
222,263,0.0,0.01862524012361146
223,265,0.0,0.018708761379771153
224,267,0.0,0.018792282635930843
225,271,0.0,0.018875803892090537
226,275,0.0,0.01895932514825023
227,16,0.0,0.01904284640440992
228,19,0.0,0.019126367660569615
229,21,0.0,0.01920988891672931
230,25,0.0,0.019293410172889
231,32,0.0,0.019376931429048692
232,277,0.0,0.019460452685208386
233,278,0.0,0.019543973941368076
234,279,0.0,0.01962749519752777
235,280,0.0,0.019711016453687464
236,281,0.0,0.019794537709847158
237,282,0.0,0.019878058966006848
238,284,0.0,0.01996158022216654
239,286,0.0,0.020045101478326235
240,287,0.0,0.020128622734485926
241,288,0.0,0.02021214399064562
242,289,0.0,0.020295665246805313
243,291,0.0,0.020379186502965004
244,292,0.0,0.020462707759124697
245,293,0.0,0.02054622901528439
246,296,0.0,0.02062975027144408
247,299,0.0,0.020713271527603775
248,300,0.0,0.02079679278376347
249,301,0.0,0.02088031403992316
250,302,0.0,0.020963835296082853
251,37,0.0,0.021047356552242547
252,67,0.0,0.021130877808402237
253,303,0.0,0.02121439906456193
254,306,0.0,0.021297920320721624
255,307,0.0,0.021381441576881315
256,310,0.0,0.02146496283304101
257,313,0.0,0.021548484089200702
258,316,0.0,0.021632005345360396
259,319,0.0,0.021715526601520086
260,320,0.0,0.02179904785767978
261,323,0.0,0.021882569113839474
262,324,0.0,0.021966090369999164
263,326,0.0,0.022049611626158858
264,329,0.0,0.02213313288231855
265,333,0.0,0.02221665413847824
266,335,0.0,0.022300175394637935
267,89,0.0,0.02238369665079763
268,336,0.0,0.02246721790695732
269,339,0.0,0.022550739163117013
270,342,0.0,0.022634260419276707
271,343,0.0,0.022717781675436397
272,346,0.0,0.02280130293159609
273,347,0.0,0.022884824187755785
274,348,0.0,0.022968345443915475
275,350,0.0,0.02305186670007517
276,353,0.0,0.023135387956234862
277,355,0.0,0.023218909212394553
278,356,0.0,0.023302430468554246
279,357,0.0,0.02338595172471394
280,362,0.0,0.023469472980873634
281,363,0.0,0.023552994237033324
282,366,0.0,0.023636515493193018
283,105,0.0,0.02372003674935271
284,109,0.0,0.023803558005512402
285,112,0.0,0.023887079261672096
286,372,0.0,0.02397060051783179
287,373,0.0,0.02405412177399148
288,377,0.0,0.024137643030151174
289,385,0.0,0.024221164286310867
290,386,0.0,0.024304685542470558
291,388,0.0,0.02438820679863025
292,391,0.0,0.024471728054789945
293,392,0.0,0.024555249310949635
294,397,0.0,0.02463877056710933
295,398,0.0,0.024722291823269023
296,400,0.0,0.024805813079428713
297,402,0.0,0.024889334335588407
298,403,0.0,0.0249728555917481
299,404,0.0,0.02505637684790779
300,405,0.0,0.025139898104067485
301,123,0.0,0.02522341936022718
302,124,0.0,0.025306940616386872
303,125,0.0,0.025390461872546562
304,126,0.0,0.025473983128706256
305,127,0.0,0.02555750438486595
306,130,0.0,0.02564102564102564
307,138,0.0,0.025724546897185334
308,140,0.0,0.025808068153345028
309,162,0.0,0.025891589409504718
310,409,0.0,0.02597511066566441
311,411,0.0,0.026058631921824105
312,413,0.0,0.026142153177983796
313,414,0.0,0.02622567443414349
314,416,0.0,0.026309195690303183
315,417,0.0,0.026392716946462873
316,418,0.0,0.026476238202622567
317,419,0.0,0.02655975945878226
318,424,0.0,0.02664328071494195
319,425,0.0,0.026726801971101645
320,427,0.0,0.02681032322726134
321,428,0.0,0.02689384448342103
322,431,0.0,0.026977365739580723
323,436,0.0,0.027060886995740416
324,441,0.0,0.02714440825190011
325,166,0.0,0.0272279295080598
326,167,0.0,0.027311450764219494
327,176,0.0,0.027394972020379188
328,189,0.0,0.02747849327653888
329,201,0.0,0.027562014532698572
330,208,0.0,0.027645535788858266
331,210,0.0,0.027729057045017956
332,211,0.0,0.02781257830117765
333,442,0.0,0.027896099557337344
334,447,0.0,0.027979620813497034
335,462,0.0,0.028063142069656728
336,467,0.0,0.02814666332581642
337,482,0.0,0.02823018458197611
338,486,0.0,0.028313705838135805
339,492,0.0,0.0283972270942955
340,495,0.0,0.02848074835045519
341,496,0.0,0.028564269606614883
342,497,0.0,0.028647790862774577
343,498,0.0,0.028731312118934267
344,500,0.0,0.02881483337509396
345,503,0.0,0.028898354631253655
346,508,0.0,0.02898187588741335
347,509,0.0,0.02906539714357304
348,226,0.0,0.029148918399732732
349,228,0.0,0.029232439655892426
350,229,0.0,0.029315960912052116
351,232,0.0,0.02939948216821181
352,233,0.0,0.029483003424371504
353,244,0.0,0.029566524680531194
354,246,0.0,0.029650045936690888
355,247,0.0,0.02973356719285058
356,248,0.0,0.029817088449010272
357,511,0.0,0.029900609705169966
358,513,0.0,0.02998413096132966
359,514,0.0,0.03006765221748935
360,516,0.0,0.030151173473649043
361,522,0.0,0.030234694729808737
362,523,0.0,0.030318215985968427
363,527,0.0,0.03040173724212812
364,531,0.0,0.030485258498287815
365,535,0.0,0.030568779754447505
366,536,0.0,0.0306523010106072
367,541,0.0,0.030735822266766893
368,547,0.0,0.030819343522926586
369,551,0.0,0.030902864779086277
370,559,0.0,0.03098638603524597
371,561,0.0,0.031069907291405664
372,250,0.0,0.031153428547565355
373,257,0.0,0.03123694980372505
374,258,0.0,0.03132047105988474
375,262,0.0,0.03140399231604443
376,264,0.0,0.031487513572204126
377,266,0.0,0.03157103482836382
378,268,0.0,0.031654556084523514
379,269,0.0,0.03173807734068321
380,270,0.0,0.031821598596842894
381,272,0.0,0.03190511985300259
382,273,0.0,0.03198864110916228
383,567,0.0,0.032072162365321975
384,571,0.0,0.03215568362148167
385,578,0.0,0.03223920487764136
386,582,0.0,0.03232272613380105
387,583,0.0,0.03240624738996074
388,586,0.0,0.03248976864612044
389,589,0.0,0.03257328990228013
390,590,0.0,0.032656811158439825
391,593,0.0,0.03274033241459952
392,594,0.0,0.032823853670759205
393,599,0.0,0.0329073749269189
394,604,0.0,0.03299089618307859
395,610,0.0,0.033074417439238286
396,613,0.0,0.03315793869539798
397,274,0.0,0.033241459951557674
398,276,0.0,0.03332498120771736
399,283,0.0,0.033408502463877054
400,285,0.0,0.03349202372003675
401,290,0.0,0.03357554497619644
402,294,0.0,0.033659066232356136
403,295,0.0,0.03374258748851583
404,297,0.0,0.03382610874467552
405,298,0.0,0.03390963000083521
406,304,0.0,0.033993151256994904
407,305,0.0,0.0340766725131546
408,308,0.0,0.03416019376931429
409,616,0.0,0.034243715025473985
410,617,0.0,0.03432723628163368
411,619,0.0,0.034410757537793366
412,621,0.0,0.03449427879395306
413,622,0.0,0.03457780005011275
414,625,0.0,0.03466132130627245
415,627,0.0,0.03474484256243214
416,628,0.0,0.034828363818591834
417,630,0.0,0.03491188507475152
418,634,0.0,0.034995406330911215
419,638,0.0,0.03507892758707091
420,640,0.0,0.0351624488432306
421,645,0.0,0.035245970099390296
422,647,0.0,0.03532949135554999
423,309,0.0,0.035413012611709684
424,311,0.0,0.03549653386786937
425,312,0.0,0.035580055124029064
426,314,0.0,0.03566357638018876
427,315,0.0,0.03574709763634845
428,317,0.0,0.035830618892508145
429,318,0.0,0.03591414014866784
430,321,0.0,0.035997661404827526
431,322,0.0,0.03608118266098722
432,325,0.0,0.03616470391714691
433,327,0.0,0.03624822517330661
434,328,0.0,0.0363317464294663
435,330,0.0,0.036415267685625995
436,648,0.0,0.03649878894178568
437,649,0.0,0.036582310197945375
438,650,0.0,0.03666583145410507
439,654,0.0,0.03674935271026476
440,661,0.0,0.036832873966424456
441,665,0.0,0.03691639522258415
442,667,0.0,0.03699991647874384
443,672,0.0,0.03708343773490353
444,674,0.0,0.037166958991063224
445,677,0.0,0.03725048024722292
446,678,0.0,0.03733400150338261
447,681,0.0,0.037417522759542306
448,683,0.0,0.037501044015702
449,684,0.0,0.037584565271861686
450,331,0.0,0.03766808652802138
451,332,0.0,0.037751607784181074
452,334,0.0,0.03783512904034077
453,337,0.0,0.03791865029650046
454,338,0.0,0.038002171552660155
455,340,0.0,0.03808569280881984
456,341,0.0,0.038169214064979536
457,344,0.0,0.03825273532113923
458,345,0.0,0.03833625657729892
459,349,0.0,0.03841977783345862
460,351,0.0,0.03850329908961831
461,352,0.0,0.038586820345778
462,354,0.0,0.03867034160193769
463,358,0.0,0.038753862858097385
464,685,0.0,0.03883738411425708
465,687,0.0,0.03892090537041677
466,691,0.0,0.039004426626576466
467,693,0.0,0.03908794788273615
468,694,0.0,0.03917146913889585
469,698,0.0,0.03925499039505554
470,699,0.0,0.039338511651215234
471,701,0.0,0.03942203290737493
472,703,0.0,0.03950555416353462
473,705,0.0,0.039589075419694315
474,707,0.0,0.039672596675854
475,714,0.0,0.039756117932013696
476,715,0.0,0.03983963918817339
477,720,0.0,0.03992316044433308
478,359,0.0,0.04000668170049278
479,360,0.0,0.04009020295665247
480,361,0.0,0.04017372421281216
481,364,0.0,0.04025724546897185
482,365,0.0,0.040340766725131545
483,367,0.0,0.04042428798129124
484,368,0.0,0.04050780923745093
485,369,0.0,0.040591330493610626
486,370,0.0,0.04067485174977031
487,371,0.0,0.04075837300593001
488,374,0.0,0.0408418942620897
489,375,0.0,0.040925415518249394
490,376,0.0,0.04100893677440909
491,378,0.0,0.04109245803056878
492,379,0.0,0.041175979286728476
493,723,0.0,0.04125950054288816
494,726,0.0,0.041343021799047856
495,728,0.0,0.04142654305520755
496,729,0.0,0.041510064311367244
497,730,0.0,0.04159358556752694
498,736,0.0,0.04167710682368663
499,739,0.0,0.04176062807984632
500,741,0.0,0.04184414933600601
501,747,0.0,0.041927670592165706
502,748,0.0,0.0420111918483254
503,751,0.0,0.04209471310448509
504,753,0.0,0.04217823436064479
505,754,0.0,0.042261755616804474
506,755,0.0,0.04234527687296417
507,380,0.0,0.04242879812912386
508,381,0.0,0.042512319385283555
509,382,0.0,0.04259584064144325
510,383,0.0,0.04267936189760294
511,384,0.0,0.04276288315376263
512,387,0.0,0.04284640440992232
513,389,0.0,0.04292992566608202
514,390,0.0,0.04301344692224171
515,393,0.0,0.043096968178401404
516,394,0.0,0.0431804894345611
517,395,0.0,0.04326401069072079
518,396,0.0,0.04334753194688048
519,399,0.0,0.04343105320304017
520,401,0.0,0.043514574459199866
521,406,0.0,0.04359809571535956
522,762,0.0,0.04368161697151925
523,763,0.0,0.04376513822767895
524,764,0.0,0.043848659483838634
525,767,0.0,0.04393218073999833
526,768,0.0,0.04401570199615802
527,775,0.0,0.044099223252317715
528,776,0.0,0.04418274450847741
529,778,0.0,0.0442662657646371
530,780,0.0,0.04434978702079679
531,781,0.0,0.04443330827695648
532,784,0.0,0.04451682953311618
533,786,0.0,0.04460035078927587
534,789,0.0,0.044683872045435565
535,790,0.0,0.04476739330159526
536,407,0.0,0.04485091455775495
537,408,0.0,0.04493443581391464
538,410,0.0,0.04501795707007433
539,412,0.0,0.045101478326234026
540,415,0.0,0.04518499958239372
541,420,0.0,0.045268520838553414
542,421,0.0,0.04535204209471311
543,422,0.0,0.045435563350872794
544,423,0.0,0.04551908460703249
545,426,0.0,0.04560260586319218
546,429,0.0,0.045686127119351876
547,430,0.0,0.04576964837551157
548,432,0.0,0.04585316963167126
549,433,0.0,0.04593669088783095
550,434,0.0,0.046020212143990644
551,794,0.0,0.04610373340015034
552,807,0.0,0.04618725465631003
553,809,0.0,0.046270775912469725
554,810,0.0,0.04635429716862942
555,812,0.0,0.046437818424789105
556,815,0.0,0.0465213396809488
557,816,0.0,0.04660486093710849
558,818,0.0,0.04668838219326819
559,821,0.0,0.04677190344942788
560,822,0.0,0.046855424705587574
561,823,0.0,0.04693894596174727
562,828,0.0,0.047022467217906955
563,832,0.0,0.04710598847406665
564,836,0.0,0.04718950973022634
565,435,0.0,0.047273030986386036
566,437,0.0,0.04735655224254573
567,438,0.0,0.04744007349870542
568,439,0.0,0.04752359475486511
569,440,0.0,0.047607116011024804
570,443,0.0,0.0476906372671845
571,444,0.0,0.04777415852334419
572,445,0.0,0.047857679779503885
573,446,0.0,0.04794120103566358
574,448,0.0,0.048024722291823266
575,449,0.0,0.04810824354798296
576,450,0.0,0.04819176480414265
577,451,0.0,0.04827528606030235
578,452,0.0,0.04835880731646204
579,453,0.0,0.048442328572621735
580,843,0.0,0.04852584982878143
581,846,0.0,0.048609371084941115
582,847,0.0,0.04869289234110081
583,852,0.0,0.0487764135972605
584,860,0.0,0.048859934853420196
585,865,0.0,0.04894345610957989
586,866,0.0,0.049026977365739584
587,875,0.0,0.04911049862189927
588,876,0.0,0.049194019878058964
589,879,0.0,0.04927754113421866
590,881,0.0,0.04936106239037835
591,883,0.0,0.049444583646538046
592,885,0.0,0.04952810490269774
593,893,0.0,0.049611626158857426
594,454,0.0,0.04969514741501712
595,455,0.0,0.049778668671176814
596,456,0.0,0.04986218992733651
597,457,0.0,0.0499457111834962
598,458,0.0,0.050029232439655895
599,459,0.0,0.05011275369581558
600,460,0.0,0.050196274951975275
601,461,0.0,0.05027979620813497
602,463,0.0,0.05036331746429466
603,464,0.0,0.05044683872045436
604,465,0.0,0.05053035997661405
605,466,0.0,0.050613881232773744
606,468,0.0,0.05069740248893343
607,469,0.0,0.050780923745093125
608,470,0.0,0.05086444500125282
609,471,0.0,0.05094796625741251
610,894,0.0,0.051031487513572206
611,895,0.0,0.0511150087697319
612,896,0.0,0.051198530025891587
613,897,0.0,0.05128205128205128
614,899,0.0,0.051365572538210974
615,903,0.0,0.05144909379437067
616,906,0.0,0.05153261505053036
617,907,0.0,0.051616136306690055
