,Request Id,request_preemption_time,cdf
157,340,0.0,7.274843590862796e-05
158,341,0.0,0.00014549687181725592
159,343,0.0,0.00021824530772588389
160,344,0.0,0.00029099374363451185
161,346,0.0,0.0003637421795431398
162,347,0.0,0.00043649061545176777
163,349,0.0,0.0005092390513603957
164,351,0.0,0.0005819874872690237
168,352,0.0,0.0006547359231776517
169,354,0.0,0.0007274843590862796
170,355,0.0,0.0008002327949949076
171,357,0.0,0.0008729812309035355
172,359,0.0,0.0009457296668121635
174,360,0.0,0.0010184781027207915
175,361,0.0,0.0010912265386294195
176,363,0.0,0.0011639749745380474
177,364,0.0,0.0012367234104466755
178,365,0.0,0.0013094718463553033
179,366,0.0,0.0013822202822639314
180,367,0.0,0.0014549687181725592
181,368,0.0,0.0015277171540811873
182,369,0.0,0.0016004655899898152
183,370,0.0,0.0016732140258984432
184,371,0.0,0.001745962461807071
185,372,0.0,0.0018187108977156992
186,374,0.0,0.001891459333624327
187,375,0.0,0.001964207769532955
190,376,0.0,0.002036956205441583
191,377,0.0,0.002109704641350211
192,378,0.0,0.002182453077258839
193,379,0.0,0.002255201513167467
195,381,0.0,0.002327949949076095
196,383,0.0,0.0024006983849847226
197,384,0.0,0.002473446820893351
198,385,0.0,0.0025461952568019788
199,386,0.0,0.0026189436927106066
200,387,0.0,0.0026916921286192345
201,389,0.0,0.0027644405645278628
202,390,0.0,0.0028371890004364906
203,391,0.0,0.0029099374363451185
205,392,0.0,0.0029826858722537463
206,393,0.0,0.0030554343081623746
207,394,0.0,0.0031281827440710025
208,395,0.0,0.0032009311799796303
210,396,0.0,0.003273679615888258
211,397,0.0,0.0033464280517968865
212,398,0.0,0.0034191764877055143
213,399,0.0,0.003491924923614142
215,400,0.0,0.0035646733595227705
216,401,0.0,0.0036374217954313983
217,402,0.0,0.003710170231340026
218,403,0.0,0.003782918667248654
220,404,0.0,0.0038556671031572823
221,405,0.0,0.00392841553906591
222,406,0.0,0.004001163974974538
223,407,0.0,0.004073912410883166
226,408,0.0,0.004146660846791794
227,409,0.0,0.004219409282700422
228,410,0.0,0.00429215771860905
229,411,0.0,0.004364906154517678
231,414,0.0,0.004437654590426306
232,415,0.0,0.004510403026334934
235,417,0.0,0.004583151462243562
236,418,0.0,0.00465589989815219
239,421,0.0,0.004728648334060817
240,422,0.0,0.004801396769969445
241,423,0.0,0.004874145205878074
245,424,0.0,0.004946893641786702
246,425,0.0,0.00501964207769533
247,426,0.0,0.0050923905136039576
248,427,0.0,0.005165138949512585
251,428,0.0,0.005237887385421213
252,429,0.0,0.005310635821329841
253,430,0.0,0.005383384257238469
254,431,0.0,0.005456132693147098
257,432,0.0,0.0055288811290557256
258,433,0.0,0.005601629564964353
259,435,0.0,0.005674378000872981
261,436,0.0,0.005747126436781609
262,437,0.0,0.005819874872690237
263,438,0.0,0.005892623308598865
264,439,0.0,0.005965371744507493
266,440,0.0,0.006038120180416121
267,441,0.0,0.006110868616324749
268,442,0.0,0.006183617052233377
269,443,0.0,0.006256365488142005
271,444,0.0,0.006329113924050633
272,447,0.0,0.006401862359959261
273,449,0.0,0.0064746107958678885
274,450,0.0,0.006547359231776516
275,451,0.0,0.006620107667685145
277,452,0.0,0.006692856103593773
278,453,0.0,0.006765604539502401
279,454,0.0,0.006838352975411029
280,455,0.0,0.0069111014113196565
281,456,0.0,0.006983849847228284
282,457,0.0,0.007056598283136912
283,458,0.0,0.007129346719045541
285,461,0.0,0.007202095154954169
286,462,0.0,0.007274843590862797
287,463,0.0,0.0073475920267714245
291,465,0.0,0.007420340462680052
292,466,0.0,0.00749308889858868
293,467,0.0,0.007565837334497308
296,468,0.0,0.007638585770405936
297,469,0.0,0.007711334206314565
298,470,0.0,0.0077840826422231925
299,471,0.0,0.00785683107813182
301,472,0.0,0.007929579514040448
302,473,0.0,0.008002327949949076
303,474,0.0,0.008075076385857704
304,475,0.0,0.008147824821766332
306,476,0.0,0.00822057325767496
307,478,0.0,0.008293321693583587
308,479,0.0,0.008366070129492215
310,480,0.0,0.008438818565400843
311,481,0.0,0.008511567001309471
312,483,0.0,0.0085843154372181
315,484,0.0,0.008657063873126728
316,485,0.0,0.008729812309035356
317,487,0.0,0.008802560744943984
320,492,0.0,0.008875309180852612
321,493,0.0,0.00894805761676124
322,494,0.0,0.009020806052669868
323,495,0.0,0.009093554488578496
325,496,0.0,0.009166302924487123
326,497,0.0,0.009239051360395751
327,498,0.0,0.00931179979630438
328,499,0.0,0.009384548232213007
329,500,0.0,0.009457296668121635
330,501,0.0,0.009530045104030263
331,503,0.0,0.00960279353993889
334,504,0.0,0.009675541975847518
335,505,0.0,0.009748290411756148
336,506,0.0,0.009821038847664776
337,507,0.0,0.009893787283573404
338,509,0.0,0.009966535719482032
339,510,0.0,0.01003928415539066
340,511,0.0,0.010112032591299287
342,512,0.0,0.010184781027207915
343,513,0.0,0.010257529463116543
344,514,0.0,0.01033027789902517
345,515,0.0,0.010403026334933799
348,516,0.0,0.010475774770842427
349,517,0.0,0.010548523206751054
350,518,0.0,0.010621271642659682
351,519,0.0,0.01069402007856831
356,520,0.0,0.010766768514476938
357,521,0.0,0.010839516950385568
358,522,0.0,0.010912265386294195
359,523,0.0,0.010985013822202823
361,524,0.0,0.011057762258111451
362,525,0.0,0.011130510694020079
363,526,0.0,0.011203259129928707
364,527,0.0,0.011276007565837335
367,528,0.0,0.011348756001745963
368,529,0.0,0.01142150443765459
369,530,0.0,0.011494252873563218
370,531,0.0,0.011567001309471846
371,532,0.0,0.011639749745380474
372,533,0.0,0.011712498181289102
373,534,0.0,0.01178524661719773
374,535,0.0,0.011857995053106357
376,536,0.0,0.011930743489014985
377,537,0.0,0.012003491924923615
378,538,0.0,0.012076240360832243
379,539,0.0,0.01214898879674087
381,540,0.0,0.012221737232649499
382,541,0.0,0.012294485668558126
383,542,0.0,0.012367234104466754
384,543,0.0,0.012439982540375382
385,545,0.0,0.01251273097628401
386,546,0.0,0.012585479412192638
388,548,0.0,0.012658227848101266
389,549,0.0,0.012730976284009893
390,550,0.0,0.012803724719918521
391,551,0.0,0.01287647315582715
393,552,0.0,0.012949221591735777
394,554,0.0,0.013021970027644405
395,353,0.0,0.013094718463553033
397,556,0.0,0.013167466899461662
398,557,0.0,0.01324021533537029
399,558,0.0,0.013312963771278918
400,559,0.0,0.013385712207187546
401,356,0.0,0.013458460643096174
402,560,0.0,0.013531209079004802
403,561,0.0,0.01360395751491343
404,562,0.0,0.013676705950822057
405,563,0.0,0.013749454386730685
407,564,0.0,0.013822202822639313
408,565,0.0,0.013894951258547941
409,566,0.0,0.013967699694456569
410,567,0.0,0.014040448130365197
412,568,0.0,0.014113196566273824
413,569,0.0,0.014185945002182452
414,570,0.0,0.014258693438091082
415,571,0.0,0.01433144187399971
417,572,0.0,0.014404190309908338
418,573,0.0,0.014476938745816965
420,576,0.0,0.014549687181725593
421,577,0.0,0.014622435617634221
422,578,0.0,0.014695184053542849
424,580,0.0,0.014767932489451477
425,582,0.0,0.014840680925360105
426,382,0.0,0.014913429361268733
428,585,0.0,0.01498617779717736
429,586,0.0,0.015058926233085988
431,591,0.0,0.015131674668994616
433,593,0.0,0.015204423104903244
434,594,0.0,0.015277171540811872
435,595,0.0,0.0153499199767205
437,597,0.0,0.01542266841262913
438,598,0.0,0.015495416848537757
439,599,0.0,0.015568165284446385
441,601,0.0,0.01564091372035501
442,602,0.0,0.01571366215626364
443,603,0.0,0.015786410592172267
445,604,0.0,0.015859159028080896
446,605,0.0,0.015931907463989523
447,606,0.0,0.016004655899898152
448,607,0.0,0.01607740433580678
450,608,0.0,0.016150152771715408
451,609,0.0,0.016222901207624037
452,610,0.0,0.016295649643532664
453,611,0.0,0.016368398079441293
456,612,0.0,0.01644114651534992
457,613,0.0,0.01651389495125855
458,614,0.0,0.016586643387167175
459,615,0.0,0.016659391823075805
461,616,0.0,0.01673214025898443
462,617,0.0,0.01680488869489306
463,618,0.0,0.016877637130801686
464,619,0.0,0.016950385566710316
465,419,0.0,0.017023134002618942
466,620,0.0,0.01709588243852757
467,621,0.0,0.0171686308744362
468,622,0.0,0.017241379310344827
469,623,0.0,0.017314127746253457
470,420,0.0,0.017386876182162083
472,624,0.0,0.017459624618070713
473,625,0.0,0.01753237305397934
474,627,0.0,0.01760512148988797
476,628,0.0,0.017677869925796594
477,629,0.0,0.017750618361705224
478,630,0.0,0.01782336679761385
479,631,0.0,0.01789611523352248
481,632,0.0,0.017968863669431106
482,633,0.0,0.018041612105339735
483,634,0.0,0.01811436054124836
484,635,0.0,0.01818710897715699
486,636,0.0,0.01825985741306562
487,637,0.0,0.018332605848974247
488,638,0.0,0.018405354284882876
489,639,0.0,0.018478102720791503
490,640,0.0,0.018550851156700132
491,641,0.0,0.01862359959260876
492,642,0.0,0.018696348028517388
493,643,0.0,0.018769096464426014
495,644,0.0,0.018841844900334644
496,647,0.0,0.01891459333624327
498,648,0.0,0.0189873417721519
499,649,0.0,0.019060090208060525
500,650,0.0,0.019132838643969155
501,651,0.0,0.01920558707987778
502,652,0.0,0.01927833551578641
503,653,0.0,0.019351083951695037
504,654,0.0,0.019423832387603666
507,656,0.0,0.019496580823512296
508,658,0.0,0.019569329259420922
509,659,0.0,0.01964207769532955
510,660,0.0,0.019714826131238178
511,661,0.0,0.019787574567146807
512,662,0.0,0.019860323003055434
513,663,0.0,0.019933071438964063
515,664,0.0,0.02000581987487269
516,665,0.0,0.02007856831078132
517,666,0.0,0.020151316746689945
518,667,0.0,0.020224065182598575
520,669,0.0,0.0202968136185072
521,670,0.0,0.02036956205441583
522,671,0.0,0.020442310490324456
523,673,0.0,0.020515058926233086
524,674,0.0,0.020587807362141716
525,675,0.0,0.02066055579805034
527,676,0.0,0.02073330423395897
528,677,0.0,0.020806052669867597
529,678,0.0,0.020878801105776227
530,679,0.0,0.020951549541684853
531,680,0.0,0.021024297977593483
532,682,0.0,0.02109704641350211
533,683,0.0,0.02116979484941074
536,686,0.0,0.021242543285319365
537,486,0.0,0.021315291721227994
539,688,0.0,0.02138804015713662
540,689,0.0,0.02146078859304525
541,690,0.0,0.021533537028953876
542,490,0.0,0.021606285464862506
544,692,0.0,0.021679033900771135
545,693,0.0,0.02175178233667976
546,694,0.0,0.02182453077258839
547,695,0.0,0.021897279208497017
549,696,0.0,0.021970027644405647
550,697,0.0,0.022042776080314273
551,698,0.0,0.022115524516222902
552,699,0.0,0.02218827295213153
555,700,0.0,0.022261021388040158
556,701,0.0,0.022333769823948784
557,702,0.0,0.022406518259857414
558,705,0.0,0.02247926669576604
559,707,0.0,0.02255201513167467
561,708,0.0,0.022624763567583295
562,710,0.0,0.022697512003491925
563,711,0.0,0.02277026043940055
565,713,0.0,0.02284300887530918
566,715,0.0,0.02291575731121781
567,716,0.0,0.022988505747126436
568,717,0.0,0.023061254183035066
569,718,0.0,0.023134002618943692
570,719,0.0,0.023206751054852322
571,720,0.0,0.023279499490760948
572,721,0.0,0.023352247926669577
573,722,0.0,0.023424996362578204
574,724,0.0,0.023497744798486833
575,725,0.0,0.02357049323439546
576,726,0.0,0.02364324167030409
578,728,0.0,0.023715990106212715
579,729,0.0,0.023788738542121345
580,730,0.0,0.02386148697802997
581,731,0.0,0.0239342354139386
584,732,0.0,0.02400698384984723
585,734,0.0,0.024079732285755856
586,735,0.0,0.024152480721664486
587,736,0.0,0.02422522915757311
588,737,0.0,0.02429797759348174
589,738,0.0,0.024370726029390367
590,739,0.0,0.024443474465298997
592,740,0.0,0.024516222901207623
593,741,0.0,0.024588971337116253
594,742,0.0,0.02466171977302488
597,744,0.0,0.02473446820893351
598,745,0.0,0.024807216644842135
599,746,0.0,0.024879965080750764
600,747,0.0,0.02495271351665939
601,544,0.0,0.02502546195256802
602,750,0.0,0.02509821038847665
603,751,0.0,0.025170958824385276
605,752,0.0,0.025243707260293905
606,753,0.0,0.02531645569620253
607,754,0.0,0.02538920413211116
608,755,0.0,0.025461952568019787
610,756,0.0,0.025534701003928417
611,757,0.0,0.025607449439837043
612,758,0.0,0.025680197875745672
613,759,0.0,0.0257529463116543
616,760,0.0,0.025825694747562928
617,761,0.0,0.025898443183471554
618,763,0.0,0.025971191619380184
620,764,0.0,0.02604394005528881
621,765,0.0,0.02611668849119744
622,766,0.0,0.026189436927106065
624,768,0.0,0.026262185363014695
625,769,0.0,0.026334933798923325
626,770,0.0,0.02640768223483195
627,771,0.0,0.02648043067074058
629,772,0.0,0.026553179106649206
630,773,0.0,0.026625927542557836
631,774,0.0,0.026698675978466462
633,776,0.0,0.026771424414375092
634,777,0.0,0.026844172850283718
635,778,0.0,0.026916921286192348
636,779,0.0,0.026989669722100974
638,780,0.0,0.027062418158009603
639,781,0.0,0.02713516659391823
641,785,0.0,0.02720791502982686
642,786,0.0,0.027280663465735485
643,787,0.0,0.027353411901644115
644,584,0.0,0.027426160337552744
646,788,0.0,0.02749890877346137
647,789,0.0,0.02757165720937
648,790,0.0,0.027644405645278626
649,791,0.0,0.027717154081187256
651,793,0.0,0.027789902517095882
652,795,0.0,0.02786265095300451
654,796,0.0,0.027935399388913137
655,797,0.0,0.028008147824821767
656,798,0.0,0.028080896260730393
657,799,0.0,0.028153644696639023
659,800,0.0,0.02822639313254765
660,801,0.0,0.02829914156845628
661,802,0.0,0.028371890004364905
662,803,0.0,0.028444638440273534
665,804,0.0,0.028517386876182164
666,805,0.0,0.02859013531209079
667,806,0.0,0.02866288374799942
668,807,0.0,0.028735632183908046
671,808,0.0,0.028808380619816675
672,809,0.0,0.0288811290557253
673,810,0.0,0.02895387749163393
674,811,0.0,0.029026625927542557
676,812,0.0,0.029099374363451187
677,813,0.0,0.029172122799359813
678,814,0.0,0.029244871235268442
680,816,0.0,0.02931761967117707
681,819,0.0,0.029390368107085698
684,820,0.0,0.029463116542994324
685,823,0.0,0.029535864978902954
687,824,0.0,0.02960861341481158
688,825,0.0,0.02968136185072021
689,826,0.0,0.02975411028662884
691,830,0.0,0.029826858722537465
692,831,0.0,0.029899607158446095
694,832,0.0,0.02997235559435472
695,833,0.0,0.03004510403026335
696,834,0.0,0.030117852466171977
698,836,0.0,0.030190600902080606
699,838,0.0,0.030263349337989232
702,840,0.0,0.030336097773897862
703,841,0.0,0.030408846209806488
704,842,0.0,0.030481594645715118
705,843,0.0,0.030554343081623744
707,844,0.0,0.030627091517532373
708,845,0.0,0.030699839953441
709,847,0.0,0.03077258838934963
712,850,0.0,0.03084533682525826
715,852,0.0,0.030918085261166885
716,855,0.0,0.030990833697075514
717,655,0.0,0.03106358213298414
719,856,0.0,0.03113633056889277
720,857,0.0,0.031209079004801396
721,858,0.0,0.03128182744071002
724,860,0.0,0.031354575876618655
725,861,0.0,0.03142732431252728
726,862,0.0,0.03150007274843591
727,863,0.0,0.031572821184344534
729,865,0.0,0.03164556962025317
730,866,0.0,0.03171831805616179
732,868,0.0,0.03179106649207042
733,869,0.0,0.031863814927979045
734,870,0.0,0.03193656336388768
735,871,0.0,0.032009311799796304
737,872,0.0,0.03208206023570493
738,874,0.0,0.03215480867161356
739,875,0.0,0.03222755710752219
741,876,0.0,0.032300305543430816
742,878,0.0,0.03237305397933944
743,879,0.0,0.032445802415248075
746,880,0.0,0.0325185508511567
747,881,0.0,0.03259129928706533
748,882,0.0,0.03266404772297395
749,883,0.0,0.032736796158882586
751,884,0.0,0.03280954459479121
752,885,0.0,0.03288229303069984
753,887,0.0,0.032955041466608465
754,687,0.0,0.0330277899025171
756,888,0.0,0.033100538338425724
757,891,0.0,0.03317328677433435
758,691,0.0,0.03324603521024298
761,892,0.0,0.03331878364615161
762,894,0.0,0.033391532082060235
763,895,0.0,0.03346428051796886
765,896,0.0,0.033537028953877494
766,897,0.0,0.03360977738978612
767,898,0.0,0.03368252582569475
768,899,0.0,0.03375527426160337
770,900,0.0,0.033828022697512006
771,902,0.0,0.03390077113342063
772,903,0.0,0.03397351956932926
775,904,0.0,0.034046268005237884
776,905,0.0,0.03411901644114652
777,906,0.0,0.03419176487705514
778,907,0.0,0.03426451331296377
779,706,0.0,0.0343372617488724
782,908,0.0,0.03441001018478103
783,909,0.0,0.034482758620689655
784,910,0.0,0.03455550705659828
785,911,0.0,0.034628255492506914
787,912,0.0,0.03470100392841554
788,913,0.0,0.034773752364324166
789,914,0.0,0.03484650080023279
790,915,0.0,0.034919249236141425
793,916,0.0,0.03499199767205005
794,917,0.0,0.03506474610795868
795,918,0.0,0.035137494543867304
796,919,0.0,0.03521024297977594
799,920,0.0,0.03528299141568456
800,922,0.0,0.03535573985159319
801,923,0.0,0.03542848828750182
804,925,0.0,0.03550123672341045
805,926,0.0,0.035573985159319074
806,927,0.0,0.0356467335952277
807,727,0.0,0.03571948203113633
809,928,0.0,0.03579223046704496
810,929,0.0,0.035864978902953586
811,930,0.0,0.03593772733886221
812,931,0.0,0.036010475774770845
814,932,0.0,0.03608322421067947
815,935,0.0,0.0361559726465881
818,937,0.0,0.03622872108249672
819,938,0.0,0.036301469518405356
820,939,0.0,0.03637421795431398
822,940,0.0,0.03644696639022261
823,941,0.0,0.03651971482613124
824,943,0.0,0.03659246326203987
826,944,0.0,0.036665211697948494
827,945,0.0,0.03673796013385712
828,946,0.0,0.03681070856976575
829,947,0.0,0.03688345700567438
832,948,0.0,0.036956205441583005
833,949,0.0,0.03702895387749163
834,950,0.0,0.037101702313400264
835,951,0.0,0.03717445074930889
837,952,0.0,0.03724719918521752
838,953,0.0,0.03731994762112614
839,954,0.0,0.037392696057034776
840,955,0.0,0.0374654444929434
842,956,0.0,0.03753819292885203
843,957,0.0,0.03761094136476066
844,958,0.0,0.03768368980066929
845,959,0.0,0.03775643823657791
847,960,0.0,0.03782918667248654
848,961,0.0,0.03790193510839517
849,963,0.0,0.0379746835443038
851,965,0.0,0.038047431980212425
852,966,0.0,0.03812018041612105
854,968,0.0,0.038192928852029684
855,970,0.0,0.03826567728793831
856,971,0.0,0.038338425723846936
858,972,0.0,0.03841117415975556
859,973,0.0,0.038483922595664195
861,978,0.0,0.03855667103157282
862,979,0.0,0.03862941946748145
864,980,0.0,0.038702167903390074
865,982,0.0,0.03877491633929871
866,983,0.0,0.03884766477520733
868,984,0.0,0.03892041321111596
869,986,0.0,0.03899316164702459
870,987,0.0,0.03906591008293322
871,784,0.0,0.039138658518841844
873,988,0.0,0.03921140695475047
874,989,0.0,0.0392841553906591
875,990,0.0,0.03935690382656773
876,991,0.0,0.039429652262476356
878,992,0.0,0.03950240069838498
879,994,0.0,0.039575149134293615
880,995,0.0,0.03964789757020224
882,996,0.0,0.03972064600611087
883,997,0.0,0.03979339444201949
884,998,0.0,0.039866142877928126
885,999,0.0,0.03993889131383675
887,1000,0.0,0.04001163974974538
888,1002,0.0,0.04008438818565401
890,1004,0.0,0.04015713662156264
891,1005,0.0,0.040229885057471264
892,1006,0.0,0.04030263349337989
893,1007,0.0,0.04037538192928852
895,1008,0.0,0.04044813036519715
896,1009,0.0,0.040520878801105775
897,1011,0.0,0.0405936272370144
899,1012,0.0,0.040666375672923034
900,1013,0.0,0.04073912410883166
901,815,0.0,0.04081187254474029
903,1016,0.0,0.04088462098064891
904,1017,0.0,0.040957369416557546
905,1018,0.0,0.04103011785246617
906,1019,0.0,0.0411028662883748
907,817,0.0,0.04117561472428343
909,1020,0.0,0.04124836316019206
910,1021,0.0,0.04132111159610068
911,1022,0.0,0.04139386003200931
912,1023,0.0,0.04146660846791794
913,821,0.0,0.04153935690382657
915,1024,0.0,0.041612105339735195
916,1025,0.0,0.04168485377564382
917,1026,0.0,0.041757602211552454
918,1027,0.0,0.04183035064746108
920,1029,0.0,0.041903099083369706
921,1030,0.0,0.04197584751927833
922,1031,0.0,0.042048595955186965
924,1033,0.0,0.04212134439109559
925,1034,0.0,0.04219409282700422
926,1035,0.0,0.04226684126291285
928,1036,0.0,0.04233958969882148
929,1038,0.0,0.0424123381347301
930,1039,0.0,0.04248508657063873
932,1040,0.0,0.04255783500654736
933,1041,0.0,0.04263058344245599
934,1042,0.0,0.042703331878364614
935,1043,0.0,0.04277608031427324
937,1044,0.0,0.042848828750181873
938,1046,0.0,0.0429215771860905
940,1048,0.0,0.042994325621999126
941,1049,0.0,0.04306707405790775
942,1050,0.0,0.043139822493816385
943,1051,0.0,0.04321257092972501
945,1053,0.0,0.04328531936563364
946,1054,0.0,0.04335806780154227
948,1056,0.0,0.043430816237450896
949,1057,0.0,0.04350356467335952
951,1060,0.0,0.04357631310926815
952,1061,0.0,0.04364906154517678
953,1062,0.0,0.04372180998108541
954,1063,0.0,0.043794558416994034
956,1064,0.0,0.04386730685290266
957,1065,0.0,0.04394005528881129
958,1066,0.0,0.04401280372471992
959,1067,0.0,0.044085552160628545
960,864,0.0,0.04415830059653717
962,1070,0.0,0.044231049032445804
963,1071,0.0,0.04430379746835443
